# OpenSignals Text File Format. Version 1
# {"98:D3:71:FD:62:1E": {"position": 0, "device": "bitalino_rev", "device name": "98:D3:71:FD:62:1E", "device connection": "BTH98:D3:71:FD:62:1E", "sampling rate": 1000, "resolution": [4, 1, 1, 1, 1, 10], "firmware version": 1282, "comments": "", "keywords": "", "mode": 0, "sync interval": 2, "date": "2023-4-14", "time": "12:14:56.710", "channels": [2], "sensor": ["ECGBIT"], "label": ["A2"], "column": ["nSeq", "I1", "I2", "O1", "O2", "A2"], "special": [{}], "digital IO": [0, 0, 1, 1]}}
# EndOfHeader
0	0	0	0	0	0	
1	0	0	0	0	0	
2	0	0	0	0	0	
3	0	0	0	0	0	
4	0	0	0	0	0	
5	0	0	0	0	7	
6	0	0	0	0	27	
7	0	0	0	0	36	
8	0	0	0	0	51	
9	0	0	0	0	64	
10	0	0	0	0	74	
11	0	0	0	0	90	
12	0	0	0	0	89	
13	0	0	0	0	82	
14	0	0	0	0	80	
15	0	0	0	0	92	
0	0	0	0	0	115	
1	0	0	0	0	134	
2	0	0	0	0	160	
3	0	0	0	0	180	
4	0	0	0	0	183	
5	0	0	0	0	181	
6	0	0	0	0	177	
7	0	0	0	0	182	
8	0	0	0	0	197	
9	0	0	0	0	207	
10	0	0	0	0	232	
11	0	0	0	0	281	
12	0	0	0	0	314	
13	0	0	0	0	327	
14	0	0	0	0	337	
15	0	0	0	0	340	
0	0	0	0	0	351	
1	0	0	0	0	352	
2	0	0	0	0	347	
3	0	0	0	0	345	
4	0	0	0	0	346	
5	0	0	0	0	359	
6	0	0	0	0	380	
7	0	0	0	0	378	
8	0	0	0	0	358	
9	0	0	0	0	367	
10	0	0	0	0	391	
11	0	0	0	0	395	
12	0	0	0	0	395	
13	0	0	0	0	398	
14	0	0	0	0	408	
15	0	0	0	0	428	
0	0	0	0	0	437	
1	0	0	0	0	453	
2	0	0	0	0	462	
3	0	0	0	0	448	
4	0	0	0	0	423	
5	0	0	0	0	414	
6	0	0	0	0	415	
7	0	0	0	0	430	
8	0	0	0	0	445	
9	0	0	0	0	454	
10	0	0	0	0	459	
11	0	0	0	0	468	
12	0	0	0	0	487	
13	0	0	0	0	489	
14	0	0	0	0	496	
15	0	0	0	0	498	
0	0	0	0	0	503	
1	0	0	0	0	511	
2	0	0	0	0	518	
3	0	0	0	0	538	
4	0	0	0	0	540	
5	0	0	0	0	539	
6	0	0	0	0	535	
7	0	0	0	0	523	
8	0	0	0	0	532	
9	0	0	0	0	550	
10	0	0	0	0	571	
11	0	0	0	0	580	
12	0	0	0	0	572	
13	0	0	0	0	564	
14	0	0	0	0	542	
15	0	0	0	0	528	
0	0	0	0	0	518	
1	0	0	0	0	510	
2	0	0	0	0	500	
3	0	0	0	0	496	
4	0	0	0	0	503	
5	0	0	0	0	507	
6	0	0	0	0	511	
7	0	0	0	0	508	
8	0	0	0	0	500	
9	0	0	0	0	503	
10	0	0	0	0	512	
11	0	0	0	0	512	
12	0	0	0	0	499	
13	0	0	0	0	515	
14	0	0	0	0	532	
15	0	0	0	0	540	
0	0	0	0	0	542	
1	0	0	0	0	540	
2	0	0	0	0	525	
3	0	0	0	0	503	
4	0	0	0	0	483	
5	0	0	0	0	479	
6	0	0	0	0	491	
7	0	0	0	0	489	
8	0	0	0	0	484	
9	0	0	0	0	486	
10	0	0	0	0	508	
11	0	0	0	0	546	
12	0	0	0	0	588	
13	0	0	0	0	609	
14	0	0	0	0	625	
15	0	0	0	0	632	
0	0	0	0	0	634	
1	0	0	0	0	645	
2	0	0	0	0	656	
3	0	0	0	0	658	
4	0	0	0	0	667	
5	0	0	0	0	681	
6	0	0	0	0	698	
7	0	0	0	0	700	
8	0	0	0	0	696	
9	0	0	0	0	690	
10	0	0	0	0	679	
11	0	0	0	0	662	
12	0	0	0	0	647	
13	0	0	0	0	649	
14	0	0	0	0	632	
15	0	0	0	0	591	
0	0	0	0	0	548	
1	0	0	0	0	527	
2	0	0	0	0	493	
3	0	0	0	0	461	
4	0	0	0	0	435	
5	0	0	0	0	407	
6	0	0	0	0	373	
7	0	0	0	0	338	
8	0	0	0	0	309	
9	0	0	0	0	275	
10	0	0	0	0	249	
11	0	0	0	0	240	
12	0	0	0	0	235	
13	0	0	0	0	230	
14	0	0	0	0	231	
15	0	0	0	0	225	
0	0	0	0	0	211	
1	0	0	0	0	204	
2	0	0	0	0	195	
3	0	0	0	0	196	
4	0	0	0	0	203	
5	0	0	0	0	206	
6	0	0	0	0	203	
7	0	0	0	0	193	
8	0	0	0	0	182	
9	0	0	0	0	185	
10	0	0	0	0	206	
11	0	0	0	0	239	
12	0	0	0	0	265	
13	0	0	0	0	279	
14	0	0	0	0	280	
15	0	0	0	0	272	
0	0	0	0	0	263	
1	0	0	0	0	276	
2	0	0	0	0	277	
3	0	0	0	0	253	
4	0	0	0	0	240	
5	0	0	0	0	243	
6	0	0	0	0	260	
7	0	0	0	0	274	
8	0	0	0	0	269	
9	0	0	0	0	267	
10	0	0	0	0	270	
11	0	0	0	0	260	
12	0	0	0	0	253	
13	0	0	0	0	231	
14	0	0	0	0	216	
15	0	0	0	0	222	
0	0	0	0	0	228	
1	0	0	0	0	231	
2	0	0	0	0	236	
3	0	0	0	0	236	
4	0	0	0	0	240	
5	0	0	0	0	234	
6	0	0	0	0	221	
7	0	0	0	0	221	
8	0	0	0	0	259	
9	0	0	0	0	287	
10	0	0	0	0	295	
11	0	0	0	0	302	
12	0	0	0	0	303	
13	0	0	0	0	301	
14	0	0	0	0	289	
15	0	0	0	0	272	
0	0	0	0	0	249	
1	0	0	0	0	243	
2	0	0	0	0	259	
3	0	0	0	0	280	
4	0	0	0	0	295	
5	0	0	0	0	304	
6	0	0	0	0	311	
7	0	0	0	0	320	
8	0	0	0	0	331	
9	0	0	0	0	347	
10	0	0	0	0	364	
11	0	0	0	0	373	
12	0	0	0	0	380	
13	0	0	0	0	376	
14	0	0	0	0	359	
15	0	0	0	0	344	
0	0	0	0	0	336	
1	0	0	0	0	329	
2	0	0	0	0	332	
3	0	0	0	0	340	
4	0	0	0	0	342	
5	0	0	0	0	332	
6	0	0	0	0	312	
7	0	0	0	0	292	
8	0	0	0	0	278	
9	0	0	0	0	272	
10	0	0	0	0	273	
11	0	0	0	0	277	
12	0	0	0	0	281	
13	0	0	0	0	292	
14	0	0	0	0	303	
15	0	0	0	0	314	
0	0	0	0	0	311	
1	0	0	0	0	298	
2	0	0	0	0	281	
3	0	0	0	0	284	
4	0	0	0	0	287	
5	0	0	0	0	291	
6	0	0	0	0	304	
7	0	0	0	0	306	
8	0	0	0	0	310	
9	0	0	0	0	320	
10	0	0	0	0	326	
11	0	0	0	0	325	
12	0	0	0	0	329	
13	0	0	0	0	336	
14	0	0	0	0	332	
15	0	0	0	0	325	
0	0	0	0	0	318	
1	0	0	0	0	305	
2	0	0	0	0	308	
3	0	0	0	0	311	
4	0	0	0	0	307	
5	0	0	0	0	305	
6	0	0	0	0	302	
7	0	0	0	0	311	
8	0	0	0	0	313	
9	0	0	0	0	311	
10	0	0	0	0	305	
11	0	0	0	0	307	
12	0	0	0	0	316	
13	0	0	0	0	322	
14	0	0	0	0	318	
15	0	0	0	0	301	
0	0	0	0	0	293	
1	0	0	0	0	290	
2	0	0	0	0	280	
3	0	0	0	0	301	
4	0	0	0	0	329	
5	0	0	0	0	342	
6	0	0	0	0	340	
7	0	0	0	0	338	
8	0	0	0	0	329	
9	0	0	0	0	324	
10	0	0	0	0	321	
11	0	0	0	0	319	
12	0	0	0	0	325	
13	0	0	0	0	335	
14	0	0	0	0	353	
15	0	0	0	0	366	
0	0	0	0	0	369	
1	0	0	0	0	370	
2	0	0	0	0	364	
3	0	0	0	0	355	
4	0	0	0	0	356	
5	0	0	0	0	355	
6	0	0	0	0	344	
7	0	0	0	0	335	
8	0	0	0	0	325	
9	0	0	0	0	316	
10	0	0	0	0	311	
11	0	0	0	0	311	
12	0	0	0	0	311	
13	0	0	0	0	316	
14	0	0	0	0	315	
15	0	0	0	0	322	
0	0	0	0	0	332	
1	0	0	0	0	341	
2	0	0	0	0	347	
3	0	0	0	0	349	
4	0	0	0	0	342	
5	0	0	0	0	336	
6	0	0	0	0	334	
7	0	0	0	0	333	
8	0	0	0	0	334	
9	0	0	0	0	334	
10	0	0	0	0	340	
11	0	0	0	0	346	
12	0	0	0	0	356	
13	0	0	0	0	366	
14	0	0	0	0	372	
15	0	0	0	0	379	
0	0	0	0	0	384	
1	0	0	0	0	378	
2	0	0	0	0	373	
3	0	0	0	0	371	
4	0	0	0	0	371	
5	0	0	0	0	376	
6	0	0	0	0	376	
7	0	0	0	0	370	
8	0	0	0	0	354	
9	0	0	0	0	346	
10	0	0	0	0	356	
11	0	0	0	0	359	
12	0	0	0	0	349	
13	0	0	0	0	337	
14	0	0	0	0	322	
15	0	0	0	0	306	
0	0	0	0	0	297	
1	0	0	0	0	305	
2	0	0	0	0	324	
3	0	0	0	0	339	
4	0	0	0	0	348	
5	0	0	0	0	352	
6	0	0	0	0	360	
7	0	0	0	0	362	
8	0	0	0	0	360	
9	0	0	0	0	358	
10	0	0	0	0	352	
11	0	0	0	0	358	
12	0	0	0	0	372	
13	0	0	0	0	384	
14	0	0	0	0	386	
15	0	0	0	0	385	
0	0	0	0	0	387	
1	0	0	0	0	389	
2	0	0	0	0	387	
3	0	0	0	0	382	
4	0	0	0	0	377	
5	0	0	0	0	378	
6	0	0	0	0	386	
7	0	0	0	0	388	
8	0	0	0	0	384	
9	0	0	0	0	381	
10	0	0	0	0	374	
11	0	0	0	0	370	
12	0	0	0	0	363	
13	0	0	0	0	353	
14	0	0	0	0	359	
15	0	0	0	0	363	
0	0	0	0	0	361	
1	0	0	0	0	368	
2	0	0	0	0	378	
3	0	0	0	0	391	
4	0	0	0	0	403	
5	0	0	0	0	407	
6	0	0	0	0	408	
7	0	0	0	0	407	
8	0	0	0	0	393	
9	0	0	0	0	378	
10	0	0	0	0	371	
11	0	0	0	0	368	
12	0	0	0	0	370	
13	0	0	0	0	368	
14	0	0	0	0	363	
15	0	0	0	0	359	
0	0	0	0	0	360	
1	0	0	0	0	365	
2	0	0	0	0	371	
3	0	0	0	0	377	
4	0	0	0	0	384	
5	0	0	0	0	385	
6	0	0	0	0	385	
7	0	0	0	0	385	
8	0	0	0	0	387	
9	0	0	0	0	392	
10	0	0	0	0	400	
11	0	0	0	0	399	
12	0	0	0	0	390	
13	0	0	0	0	381	
14	0	0	0	0	374	
15	0	0	0	0	369	
0	0	0	0	0	367	
1	0	0	0	0	374	
2	0	0	0	0	386	
3	0	0	0	0	380	
4	0	0	0	0	374	
5	0	0	0	0	381	
6	0	0	0	0	396	
7	0	0	0	0	412	
8	0	0	0	0	419	
9	0	0	0	0	423	
10	0	0	0	0	428	
11	0	0	0	0	436	
12	0	0	0	0	438	
13	0	0	0	0	441	
14	0	0	0	0	434	
15	0	0	0	0	431	
0	0	0	0	0	431	
1	0	0	0	0	423	
2	0	0	0	0	415	
3	0	0	0	0	412	
4	0	0	0	0	413	
5	0	0	0	0	416	
6	0	0	0	0	425	
7	0	0	0	0	437	
8	0	0	0	0	446	
9	0	0	0	0	449	
10	0	0	0	0	452	
11	0	0	0	0	447	
12	0	0	0	0	436	
13	0	0	0	0	427	
14	0	0	0	0	416	
15	0	0	0	0	406	
0	0	0	0	0	406	
1	0	0	0	0	408	
2	0	0	0	0	416	
3	0	0	0	0	436	
4	0	0	0	0	455	
5	0	0	0	0	459	
6	0	0	0	0	451	
7	0	0	0	0	442	
8	0	0	0	0	435	
9	0	0	0	0	443	
10	0	0	0	0	449	
11	0	0	0	0	452	
12	0	0	0	0	465	
13	0	0	0	0	479	
14	0	0	0	0	485	
15	0	0	0	0	481	
0	0	0	0	0	482	
1	0	0	0	0	481	
2	0	0	0	0	483	
3	0	0	0	0	488	
4	0	0	0	0	491	
5	0	0	0	0	489	
6	0	0	0	0	496	
7	0	0	0	0	505	
8	0	0	0	0	511	
9	0	0	0	0	519	
10	0	0	0	0	533	
11	0	0	0	0	544	
12	0	0	0	0	550	
13	0	0	0	0	560	
14	0	0	0	0	572	
15	0	0	0	0	584	
0	0	0	0	0	601	
1	0	0	0	0	622	
2	0	0	0	0	641	
3	0	0	0	0	655	
4	0	0	0	0	670	
5	0	0	0	0	683	
6	0	0	0	0	690	
7	0	0	0	0	700	
8	0	0	0	0	713	
9	0	0	0	0	734	
10	0	0	0	0	750	
11	0	0	0	0	761	
12	0	0	0	0	771	
13	0	0	0	0	787	
14	0	0	0	0	807	
15	0	0	0	0	827	
0	0	0	0	0	845	
1	0	0	0	0	862	
2	0	0	0	0	876	
3	0	0	0	0	881	
4	0	0	0	0	885	
5	0	0	0	0	888	
6	0	0	0	0	891	
7	0	0	0	0	893	
8	0	0	0	0	898	
9	0	0	0	0	901	
10	0	0	0	0	899	
11	0	0	0	0	900	
12	0	0	0	0	898	
13	0	0	0	0	898	
14	0	0	0	0	903	
15	0	0	0	0	907	
0	0	0	0	0	910	
1	0	0	0	0	911	
2	0	0	0	0	915	
3	0	0	0	0	923	
4	0	0	0	0	937	
5	0	0	0	0	952	
6	0	0	0	0	970	
7	0	0	0	0	977	
8	0	0	0	0	979	
9	0	0	0	0	981	
10	0	0	0	0	979	
11	0	0	0	0	980	
12	0	0	0	0	984	
13	0	0	0	0	991	
14	0	0	0	0	993	
15	0	0	0	0	989	
0	0	0	0	0	983	
1	0	0	0	0	979	
2	0	0	0	0	974	
3	0	0	0	0	977	
4	0	0	0	0	994	
5	0	0	0	0	1009	
6	0	0	0	0	1015	
7	0	0	0	0	1021	
8	0	0	0	0	1022	
9	0	0	0	0	1022	
10	0	0	0	0	1022	
11	0	0	0	0	1022	
12	0	0	0	0	1022	
13	0	0	0	0	1022	
14	0	0	0	0	1022	
15	0	0	0	0	1022	
0	0	0	0	0	1022	
1	0	0	0	0	1022	
2	0	0	0	0	1022	
3	0	0	0	0	1022	
4	0	0	0	0	1022	
5	0	0	0	0	1022	
6	0	0	0	0	1022	
7	0	0	0	0	1022	
8	0	0	0	0	1022	
9	0	0	0	0	1022	
10	0	0	0	0	1022	
11	0	0	0	0	1022	
12	0	0	0	0	1022	
13	0	0	0	0	1022	
14	0	0	0	0	1022	
15	0	0	0	0	1022	
0	0	0	0	0	1022	
1	0	0	0	0	1022	
2	0	0	0	0	1022	
3	0	0	0	0	1022	
4	0	0	0	0	1022	
5	0	0	0	0	1022	
6	0	0	0	0	1022	
7	0	0	0	0	1022	
8	0	0	0	0	1022	
9	0	0	0	0	1022	
10	0	0	0	0	1022	
11	0	0	0	0	1022	
12	0	0	0	0	1022	
13	0	0	0	0	1022	
14	0	0	0	0	1022	
15	0	0	0	0	1022	
0	0	0	0	0	1022	
1	0	0	0	0	1022	
2	0	0	0	0	1022	
3	0	0	0	0	1022	
4	0	0	0	0	1022	
5	0	0	0	0	1022	
6	0	0	0	0	1022	
7	0	0	0	0	1022	
8	0	0	0	0	1022	
9	0	0	0	0	1022	
10	0	0	0	0	1022	
11	0	0	0	0	1022	
12	0	0	0	0	1022	
13	0	0	0	0	1022	
14	0	0	0	0	1022	
15	0	0	0	0	1022	
0	0	0	0	0	1022	
1	0	0	0	0	1022	
2	0	0	0	0	1022	
3	0	0	0	0	1022	
4	0	0	0	0	1022	
5	0	0	0	0	1022	
6	0	0	0	0	1022	
7	0	0	0	0	1022	
8	0	0	0	0	1007	
9	0	0	0	0	998	
10	0	0	0	0	991	
11	0	0	0	0	984	
12	0	0	0	0	978	
13	0	0	0	0	972	
14	0	0	0	0	966	
15	0	0	0	0	953	
0	0	0	0	0	932	
1	0	0	0	0	914	
2	0	0	0	0	895	
3	0	0	0	0	880	
4	0	0	0	0	864	
5	0	0	0	0	844	
6	0	0	0	0	824	
7	0	0	0	0	813	
8	0	0	0	0	807	
9	0	0	0	0	810	
10	0	0	0	0	815	
11	0	0	0	0	813	
12	0	0	0	0	800	
13	0	0	0	0	792	
14	0	0	0	0	790	
15	0	0	0	0	783	
0	0	0	0	0	774	
1	0	0	0	0	769	
2	0	0	0	0	756	
3	0	0	0	0	747	
4	0	0	0	0	742	
5	0	0	0	0	740	
6	0	0	0	0	741	
7	0	0	0	0	741	
8	0	0	0	0	743	
9	0	0	0	0	748	
10	0	0	0	0	745	
11	0	0	0	0	745	
12	0	0	0	0	743	
13	0	0	0	0	731	
14	0	0	0	0	709	
15	0	0	0	0	693	
0	0	0	0	0	698	
1	0	0	0	0	707	
2	0	0	0	0	702	
3	0	0	0	0	689	
4	0	0	0	0	675	
5	0	0	0	0	659	
6	0	0	0	0	648	
7	0	0	0	0	651	
8	0	0	0	0	667	
9	0	0	0	0	669	
10	0	0	0	0	669	
11	0	0	0	0	663	
12	0	0	0	0	651	
13	0	0	0	0	642	
14	0	0	0	0	646	
15	0	0	0	0	650	
0	0	0	0	0	647	
1	0	0	0	0	643	
2	0	0	0	0	643	
3	0	0	0	0	648	
4	0	0	0	0	649	
5	0	0	0	0	637	
6	0	0	0	0	622	
7	0	0	0	0	609	
8	0	0	0	0	602	
9	0	0	0	0	595	
10	0	0	0	0	583	
11	0	0	0	0	583	
12	0	0	0	0	587	
13	0	0	0	0	571	
14	0	0	0	0	549	
15	0	0	0	0	533	
0	0	0	0	0	526	
1	0	0	0	0	524	
2	0	0	0	0	530	
3	0	0	0	0	534	
4	0	0	0	0	540	
5	0	0	0	0	545	
6	0	0	0	0	549	
7	0	0	0	0	553	
8	0	0	0	0	556	
9	0	0	0	0	561	
10	0	0	0	0	575	
11	0	0	0	0	588	
12	0	0	0	0	599	
13	0	0	0	0	610	
14	0	0	0	0	624	
15	0	0	0	0	641	
0	0	0	0	0	657	
1	0	0	0	0	670	
2	0	0	0	0	688	
3	0	0	0	0	708	
4	0	0	0	0	718	
5	0	0	0	0	727	
6	0	0	0	0	746	
7	0	0	0	0	768	
8	0	0	0	0	783	
9	0	0	0	0	797	
10	0	0	0	0	807	
11	0	0	0	0	813	
12	0	0	0	0	816	
13	0	0	0	0	813	
14	0	0	0	0	799	
15	0	0	0	0	780	
0	0	0	0	0	750	
1	0	0	0	0	726	
2	0	0	0	0	704	
3	0	0	0	0	677	
4	0	0	0	0	659	
5	0	0	0	0	636	
6	0	0	0	0	606	
7	0	0	0	0	575	
8	0	0	0	0	550	
9	0	0	0	0	529	
10	0	0	0	0	518	
11	0	0	0	0	506	
12	0	0	0	0	482	
13	0	0	0	0	459	
14	0	0	0	0	435	
15	0	0	0	0	414	
0	0	0	0	0	394	
1	0	0	0	0	379	
2	0	0	0	0	375	
3	0	0	0	0	371	
4	0	0	0	0	368	
5	0	0	0	0	360	
6	0	0	0	0	364	
7	0	0	0	0	372	
8	0	0	0	0	370	
9	0	0	0	0	371	
10	0	0	0	0	375	
11	0	0	0	0	365	
12	0	0	0	0	350	
13	0	0	0	0	340	
14	0	0	0	0	343	
15	0	0	0	0	358	
0	0	0	0	0	368	
1	0	0	0	0	378	
2	0	0	0	0	391	
3	0	0	0	0	399	
4	0	0	0	0	406	
5	0	0	0	0	413	
6	0	0	0	0	422	
7	0	0	0	0	424	
8	0	0	0	0	424	
9	0	0	0	0	420	
10	0	0	0	0	419	
11	0	0	0	0	427	
12	0	0	0	0	436	
13	0	0	0	0	444	
14	0	0	0	0	445	
15	0	0	0	0	445	
0	0	0	0	0	439	
1	0	0	0	0	426	
2	0	0	0	0	413	
3	0	0	0	0	408	
4	0	0	0	0	402	
5	0	0	0	0	396	
6	0	0	0	0	391	
7	0	0	0	0	391	
8	0	0	0	0	391	
9	0	0	0	0	391	
10	0	0	0	0	397	
11	0	0	0	0	410	
12	0	0	0	0	431	
13	0	0	0	0	453	
14	0	0	0	0	478	
15	0	0	0	0	509	
0	0	0	0	0	537	
1	0	0	0	0	564	
2	0	0	0	0	585	
3	0	0	0	0	603	
4	0	0	0	0	622	
5	0	0	0	0	643	
6	0	0	0	0	666	
7	0	0	0	0	683	
8	0	0	0	0	698	
9	0	0	0	0	716	
10	0	0	0	0	735	
11	0	0	0	0	750	
12	0	0	0	0	758	
13	0	0	0	0	760	
14	0	0	0	0	752	
15	0	0	0	0	737	
0	0	0	0	0	723	
1	0	0	0	0	730	
2	0	0	0	0	740	
3	0	0	0	0	739	
4	0	0	0	0	745	
5	0	0	0	0	759	
6	0	0	0	0	776	
7	0	0	0	0	800	
8	0	0	0	0	818	
9	0	0	0	0	833	
10	0	0	0	0	843	
11	0	0	0	0	839	
12	0	0	0	0	829	
13	0	0	0	0	820	
14	0	0	0	0	814	
15	0	0	0	0	813	
0	0	0	0	0	808	
1	0	0	0	0	805	
2	0	0	0	0	810	
3	0	0	0	0	816	
4	0	0	0	0	826	
5	0	0	0	0	835	
6	0	0	0	0	844	
7	0	0	0	0	846	
8	0	0	0	0	845	
9	0	0	0	0	844	
10	0	0	0	0	845	
11	0	0	0	0	849	
12	0	0	0	0	843	
13	0	0	0	0	833	
14	0	0	0	0	819	
15	0	0	0	0	810	
0	0	0	0	0	803	
1	0	0	0	0	804	
2	0	0	0	0	816	
3	0	0	0	0	826	
4	0	0	0	0	827	
5	0	0	0	0	811	
6	0	0	0	0	796	
7	0	0	0	0	790	
8	0	0	0	0	790	
9	0	0	0	0	797	
10	0	0	0	0	812	
11	0	0	0	0	824	
12	0	0	0	0	825	
13	0	0	0	0	816	
14	0	0	0	0	809	
15	0	0	0	0	807	
0	0	0	0	0	808	
1	0	0	0	0	814	
2	0	0	0	0	818	
3	0	0	0	0	817	
4	0	0	0	0	812	
5	0	0	0	0	805	
6	0	0	0	0	799	
7	0	0	0	0	792	
8	0	0	0	0	792	
9	0	0	0	0	795	
10	0	0	0	0	791	
11	0	0	0	0	788	
12	0	0	0	0	790	
13	0	0	0	0	787	
14	0	0	0	0	778	
15	0	0	0	0	766	
0	0	0	0	0	762	
1	0	0	0	0	766	
2	0	0	0	0	765	
3	0	0	0	0	770	
4	0	0	0	0	777	
5	0	0	0	0	777	
6	0	0	0	0	772	
7	0	0	0	0	767	
8	0	0	0	0	763	
9	0	0	0	0	758	
10	0	0	0	0	756	
11	0	0	0	0	759	
12	0	0	0	0	762	
13	0	0	0	0	766	
14	0	0	0	0	770	
15	0	0	0	0	770	
0	0	0	0	0	763	
1	0	0	0	0	756	
2	0	0	0	0	748	
3	0	0	0	0	739	
4	0	0	0	0	729	
5	0	0	0	0	723	
6	0	0	0	0	712	
7	0	0	0	0	695	
8	0	0	0	0	689	
9	0	0	0	0	705	
10	0	0	0	0	722	
11	0	0	0	0	729	
12	0	0	0	0	734	
13	0	0	0	0	742	
14	0	0	0	0	748	
15	0	0	0	0	752	
0	0	0	0	0	748	
1	0	0	0	0	737	
2	0	0	0	0	725	
3	0	0	0	0	720	
4	0	0	0	0	711	
5	0	0	0	0	696	
6	0	0	0	0	685	
7	0	0	0	0	662	
8	0	0	0	0	646	
9	0	0	0	0	635	
10	0	0	0	0	630	
11	0	0	0	0	626	
12	0	0	0	0	616	
13	0	0	0	0	608	
14	0	0	0	0	611	
15	0	0	0	0	612	
0	0	0	0	0	614	
1	0	0	0	0	615	
2	0	0	0	0	611	
3	0	0	0	0	615	
4	0	0	0	0	618	
5	0	0	0	0	614	
6	0	0	0	0	607	
7	0	0	0	0	598	
8	0	0	0	0	587	
9	0	0	0	0	580	
10	0	0	0	0	583	
11	0	0	0	0	593	
12	0	0	0	0	598	
13	0	0	0	0	599	
14	0	0	0	0	602	
15	0	0	0	0	599	
0	0	0	0	0	589	
1	0	0	0	0	573	
2	0	0	0	0	565	
3	0	0	0	0	554	
4	0	0	0	0	541	
5	0	0	0	0	534	
6	0	0	0	0	530	
7	0	0	0	0	525	
8	0	0	0	0	522	
9	0	0	0	0	517	
10	0	0	0	0	517	
11	0	0	0	0	523	
12	0	0	0	0	533	
13	0	0	0	0	541	
14	0	0	0	0	543	
15	0	0	0	0	539	
0	0	0	0	0	520	
1	0	0	0	0	505	
2	0	0	0	0	494	
3	0	0	0	0	483	
4	0	0	0	0	475	
5	0	0	0	0	479	
6	0	0	0	0	490	
7	0	0	0	0	495	
8	0	0	0	0	494	
9	0	0	0	0	496	
10	0	0	0	0	496	
11	0	0	0	0	490	
12	0	0	0	0	484	
13	0	0	0	0	475	
14	0	0	0	0	469	
15	0	0	0	0	467	
0	0	0	0	0	472	
1	0	0	0	0	479	
2	0	0	0	0	480	
3	0	0	0	0	473	
4	0	0	0	0	462	
5	0	0	0	0	448	
6	0	0	0	0	435	
7	0	0	0	0	423	
8	0	0	0	0	424	
9	0	0	0	0	430	
10	0	0	0	0	440	
11	0	0	0	0	441	
12	0	0	0	0	435	
13	0	0	0	0	427	
14	0	0	0	0	419	
15	0	0	0	0	414	
0	0	0	0	0	409	
1	0	0	0	0	411	
2	0	0	0	0	417	
3	0	0	0	0	422	
4	0	0	0	0	421	
5	0	0	0	0	418	
6	0	0	0	0	412	
7	0	0	0	0	402	
8	0	0	0	0	396	
9	0	0	0	0	397	
10	0	0	0	0	395	
11	0	0	0	0	390	
12	0	0	0	0	388	
13	0	0	0	0	388	
14	0	0	0	0	388	
15	0	0	0	0	380	
0	0	0	0	0	367	
1	0	0	0	0	359	
2	0	0	0	0	371	
3	0	0	0	0	379	
4	0	0	0	0	379	
5	0	0	0	0	385	
6	0	0	0	0	391	
7	0	0	0	0	387	
8	0	0	0	0	377	
9	0	0	0	0	368	
10	0	0	0	0	367	
11	0	0	0	0	367	
12	0	0	0	0	368	
13	0	0	0	0	372	
14	0	0	0	0	384	
15	0	0	0	0	391	
0	0	0	0	0	393	
1	0	0	0	0	391	
2	0	0	0	0	387	
3	0	0	0	0	384	
4	0	0	0	0	375	
5	0	0	0	0	377	
6	0	0	0	0	384	
7	0	0	0	0	388	
8	0	0	0	0	391	
9	0	0	0	0	397	
10	0	0	0	0	408	
11	0	0	0	0	422	
12	0	0	0	0	421	
13	0	0	0	0	404	
14	0	0	0	0	387	
15	0	0	0	0	377	
0	0	0	0	0	368	
1	0	0	0	0	364	
2	0	0	0	0	367	
3	0	0	0	0	366	
4	0	0	0	0	363	
5	0	0	0	0	363	
6	0	0	0	0	361	
7	0	0	0	0	364	
8	0	0	0	0	368	
9	0	0	0	0	367	
10	0	0	0	0	360	
11	0	0	0	0	355	
12	0	0	0	0	351	
13	0	0	0	0	353	
14	0	0	0	0	361	
15	0	0	0	0	367	
0	0	0	0	0	371	
1	0	0	0	0	378	
2	0	0	0	0	379	
3	0	0	0	0	380	
4	0	0	0	0	382	
5	0	0	0	0	383	
6	0	0	0	0	383	
7	0	0	0	0	381	
8	0	0	0	0	379	
9	0	0	0	0	376	
10	0	0	0	0	377	
11	0	0	0	0	380	
12	0	0	0	0	377	
13	0	0	0	0	374	
14	0	0	0	0	371	
15	0	0	0	0	380	
0	0	0	0	0	395	
1	0	0	0	0	408	
2	0	0	0	0	415	
3	0	0	0	0	415	
4	0	0	0	0	414	
5	0	0	0	0	415	
6	0	0	0	0	423	
7	0	0	0	0	435	
8	0	0	0	0	447	
9	0	0	0	0	456	
10	0	0	0	0	463	
11	0	0	0	0	467	
12	0	0	0	0	471	
13	0	0	0	0	464	
14	0	0	0	0	447	
15	0	0	0	0	420	
0	0	0	0	0	408	
1	0	0	0	0	401	
2	0	0	0	0	396	
3	0	0	0	0	396	
4	0	0	0	0	398	
5	0	0	0	0	410	
6	0	0	0	0	416	
7	0	0	0	0	421	
8	0	0	0	0	425	
9	0	0	0	0	429	
10	0	0	0	0	434	
11	0	0	0	0	438	
12	0	0	0	0	435	
13	0	0	0	0	436	
14	0	0	0	0	438	
15	0	0	0	0	438	
0	0	0	0	0	438	
1	0	0	0	0	444	
2	0	0	0	0	445	
3	0	0	0	0	433	
4	0	0	0	0	427	
5	0	0	0	0	426	
6	0	0	0	0	422	
7	0	0	0	0	411	
8	0	0	0	0	406	
9	0	0	0	0	401	
10	0	0	0	0	397	
11	0	0	0	0	392	
12	0	0	0	0	389	
13	0	0	0	0	393	
14	0	0	0	0	399	
15	0	0	0	0	397	
0	0	0	0	0	395	
1	0	0	0	0	400	
2	0	0	0	0	401	
3	0	0	0	0	400	
4	0	0	0	0	401	
5	0	0	0	0	411	
6	0	0	0	0	427	
7	0	0	0	0	431	
8	0	0	0	0	430	
9	0	0	0	0	431	
10	0	0	0	0	426	
11	0	0	0	0	418	
12	0	0	0	0	414	
13	0	0	0	0	410	
14	0	0	0	0	405	
15	0	0	0	0	398	
0	0	0	0	0	401	
1	0	0	0	0	415	
2	0	0	0	0	439	
3	0	0	0	0	460	
4	0	0	0	0	466	
5	0	0	0	0	464	
6	0	0	0	0	462	
7	0	0	0	0	457	
8	0	0	0	0	457	
9	0	0	0	0	448	
10	0	0	0	0	435	
11	0	0	0	0	425	
12	0	0	0	0	422	
13	0	0	0	0	419	
14	0	0	0	0	415	
15	0	0	0	0	422	
0	0	0	0	0	427	
1	0	0	0	0	432	
2	0	0	0	0	429	
3	0	0	0	0	421	
4	0	0	0	0	421	
5	0	0	0	0	429	
6	0	0	0	0	438	
7	0	0	0	0	446	
8	0	0	0	0	452	
9	0	0	0	0	457	
10	0	0	0	0	463	
11	0	0	0	0	463	
12	0	0	0	0	463	
13	0	0	0	0	459	
14	0	0	0	0	454	
15	0	0	0	0	455	
0	0	0	0	0	458	
1	0	0	0	0	462	
2	0	0	0	0	463	
3	0	0	0	0	459	
4	0	0	0	0	454	
5	0	0	0	0	452	
6	0	0	0	0	450	
7	0	0	0	0	441	
8	0	0	0	0	435	
9	0	0	0	0	433	
10	0	0	0	0	432	
11	0	0	0	0	435	
12	0	0	0	0	438	
13	0	0	0	0	446	
14	0	0	0	0	454	
15	0	0	0	0	458	
0	0	0	0	0	458	
1	0	0	0	0	461	
2	0	0	0	0	461	
3	0	0	0	0	461	
4	0	0	0	0	455	
5	0	0	0	0	445	
6	0	0	0	0	439	
7	0	0	0	0	436	
8	0	0	0	0	441	
9	0	0	0	0	457	
10	0	0	0	0	470	
11	0	0	0	0	485	
12	0	0	0	0	495	
13	0	0	0	0	499	
14	0	0	0	0	500	
15	0	0	0	0	504	
0	0	0	0	0	511	
1	0	0	0	0	518	
2	0	0	0	0	521	
3	0	0	0	0	520	
4	0	0	0	0	510	
5	0	0	0	0	503	
6	0	0	0	0	491	
7	0	0	0	0	476	
8	0	0	0	0	471	
9	0	0	0	0	469	
10	0	0	0	0	472	
11	0	0	0	0	474	
12	0	0	0	0	478	
13	0	0	0	0	484	
14	0	0	0	0	489	
15	0	0	0	0	489	
0	0	0	0	0	489	
1	0	0	0	0	492	
2	0	0	0	0	499	
3	0	0	0	0	505	
4	0	0	0	0	513	
5	0	0	0	0	513	
6	0	0	0	0	508	
7	0	0	0	0	506	
8	0	0	0	0	507	
9	0	0	0	0	510	
10	0	0	0	0	509	
11	0	0	0	0	509	
12	0	0	0	0	507	
13	0	0	0	0	502	
14	0	0	0	0	499	
15	0	0	0	0	495	
0	0	0	0	0	491	
1	0	0	0	0	488	
2	0	0	0	0	489	
3	0	0	0	0	493	
4	0	0	0	0	492	
5	0	0	0	0	489	
6	0	0	0	0	492	
7	0	0	0	0	499	
8	0	0	0	0	500	
9	0	0	0	0	498	
10	0	0	0	0	497	
11	0	0	0	0	495	
12	0	0	0	0	493	
13	0	0	0	0	491	
14	0	0	0	0	490	
15	0	0	0	0	487	
0	0	0	0	0	488	
1	0	0	0	0	498	
2	0	0	0	0	504	
3	0	0	0	0	497	
4	0	0	0	0	493	
5	0	0	0	0	489	
6	0	0	0	0	485	
7	0	0	0	0	483	
8	0	0	0	0	479	
9	0	0	0	0	480	
10	0	0	0	0	484	
11	0	0	0	0	488	
12	0	0	0	0	498	
13	0	0	0	0	513	
14	0	0	0	0	532	
15	0	0	0	0	552	
0	0	0	0	0	569	
1	0	0	0	0	592	
2	0	0	0	0	612	
3	0	0	0	0	629	
4	0	0	0	0	646	
5	0	0	0	0	661	
6	0	0	0	0	679	
7	0	0	0	0	700	
8	0	0	0	0	719	
9	0	0	0	0	732	
10	0	0	0	0	747	
11	0	0	0	0	765	
12	0	0	0	0	787	
13	0	0	0	0	814	
14	0	0	0	0	830	
15	0	0	0	0	837	
0	0	0	0	0	841	
1	0	0	0	0	840	
2	0	0	0	0	832	
3	0	0	0	0	824	
4	0	0	0	0	809	
5	0	0	0	0	788	
6	0	0	0	0	760	
7	0	0	0	0	729	
8	0	0	0	0	700	
9	0	0	0	0	669	
10	0	0	0	0	639	
11	0	0	0	0	616	
12	0	0	0	0	591	
13	0	0	0	0	564	
14	0	0	0	0	543	
15	0	0	0	0	513	
0	0	0	0	0	481	
1	0	0	0	0	456	
2	0	0	0	0	435	
3	0	0	0	0	417	
4	0	0	0	0	404	
5	0	0	0	0	398	
6	0	0	0	0	391	
7	0	0	0	0	384	
8	0	0	0	0	376	
9	0	0	0	0	367	
10	0	0	0	0	366	
11	0	0	0	0	369	
12	0	0	0	0	373	
13	0	0	0	0	370	
14	0	0	0	0	361	
15	0	0	0	0	358	
0	0	0	0	0	365	
1	0	0	0	0	371	
2	0	0	0	0	376	
3	0	0	0	0	380	
4	0	0	0	0	377	
5	0	0	0	0	380	
6	0	0	0	0	390	
7	0	0	0	0	400	
8	0	0	0	0	412	
9	0	0	0	0	425	
10	0	0	0	0	433	
11	0	0	0	0	436	
12	0	0	0	0	437	
13	0	0	0	0	437	
14	0	0	0	0	436	
15	0	0	0	0	440	
0	0	0	0	0	445	
1	0	0	0	0	453	
2	0	0	0	0	461	
3	0	0	0	0	472	
4	0	0	0	0	475	
5	0	0	0	0	471	
6	0	0	0	0	472	
7	0	0	0	0	472	
8	0	0	0	0	469	
9	0	0	0	0	470	
10	0	0	0	0	465	
11	0	0	0	0	465	
12	0	0	0	0	469	
13	0	0	0	0	463	
14	0	0	0	0	449	
15	0	0	0	0	442	
0	0	0	0	0	445	
1	0	0	0	0	453	
2	0	0	0	0	457	
3	0	0	0	0	456	
4	0	0	0	0	454	
5	0	0	0	0	456	
6	0	0	0	0	458	
7	0	0	0	0	453	
8	0	0	0	0	457	
9	0	0	0	0	468	
10	0	0	0	0	475	
11	0	0	0	0	481	
12	0	0	0	0	484	
13	0	0	0	0	481	
14	0	0	0	0	474	
15	0	0	0	0	473	
0	0	0	0	0	474	
1	0	0	0	0	480	
2	0	0	0	0	484	
3	0	0	0	0	481	
4	0	0	0	0	479	
5	0	0	0	0	481	
6	0	0	0	0	484	
7	0	0	0	0	486	
8	0	0	0	0	486	
9	0	0	0	0	484	
10	0	0	0	0	482	
11	0	0	0	0	481	
12	0	0	0	0	479	
13	0	0	0	0	479	
14	0	0	0	0	480	
15	0	0	0	0	475	
0	0	0	0	0	471	
1	0	0	0	0	476	
2	0	0	0	0	480	
3	0	0	0	0	485	
4	0	0	0	0	490	
5	0	0	0	0	493	
6	0	0	0	0	495	
7	0	0	0	0	499	
8	0	0	0	0	495	
9	0	0	0	0	489	
10	0	0	0	0	487	
11	0	0	0	0	487	
12	0	0	0	0	486	
13	0	0	0	0	488	
14	0	0	0	0	492	
15	0	0	0	0	500	
0	0	0	0	0	501	
1	0	0	0	0	502	
2	0	0	0	0	511	
3	0	0	0	0	521	
4	0	0	0	0	532	
5	0	0	0	0	543	
6	0	0	0	0	551	
7	0	0	0	0	556	
8	0	0	0	0	562	
9	0	0	0	0	567	
10	0	0	0	0	559	
11	0	0	0	0	543	
12	0	0	0	0	524	
13	0	0	0	0	509	
14	0	0	0	0	502	
15	0	0	0	0	495	
0	0	0	0	0	484	
1	0	0	0	0	479	
2	0	0	0	0	481	
3	0	0	0	0	493	
4	0	0	0	0	504	
5	0	0	0	0	505	
6	0	0	0	0	506	
7	0	0	0	0	510	
8	0	0	0	0	511	
9	0	0	0	0	510	
10	0	0	0	0	515	
11	0	0	0	0	516	
12	0	0	0	0	510	
13	0	0	0	0	508	
14	0	0	0	0	508	
15	0	0	0	0	506	
0	0	0	0	0	505	
1	0	0	0	0	504	
2	0	0	0	0	499	
3	0	0	0	0	499	
4	0	0	0	0	505	
5	0	0	0	0	510	
6	0	0	0	0	511	
7	0	0	0	0	511	
8	0	0	0	0	511	
9	0	0	0	0	507	
10	0	0	0	0	511	
11	0	0	0	0	512	
12	0	0	0	0	508	
13	0	0	0	0	514	
14	0	0	0	0	521	
15	0	0	0	0	522	
0	0	0	0	0	522	
1	0	0	0	0	531	
2	0	0	0	0	539	
3	0	0	0	0	542	
4	0	0	0	0	550	
5	0	0	0	0	559	
6	0	0	0	0	558	
7	0	0	0	0	556	
8	0	0	0	0	546	
9	0	0	0	0	535	
10	0	0	0	0	531	
11	0	0	0	0	532	
12	0	0	0	0	530	
13	0	0	0	0	524	
14	0	0	0	0	518	
15	0	0	0	0	515	
0	0	0	0	0	508	
1	0	0	0	0	504	
2	0	0	0	0	509	
3	0	0	0	0	515	
4	0	0	0	0	516	
5	0	0	0	0	515	
6	0	0	0	0	516	
7	0	0	0	0	512	
8	0	0	0	0	520	
9	0	0	0	0	528	
10	0	0	0	0	531	
11	0	0	0	0	538	
12	0	0	0	0	544	
13	0	0	0	0	544	
14	0	0	0	0	541	
15	0	0	0	0	538	
0	0	0	0	0	539	
1	0	0	0	0	538	
2	0	0	0	0	537	
3	0	0	0	0	539	
4	0	0	0	0	539	
5	0	0	0	0	537	
6	0	0	0	0	532	
7	0	0	0	0	528	
8	0	0	0	0	526	
9	0	0	0	0	520	
10	0	0	0	0	515	
11	0	0	0	0	513	
12	0	0	0	0	510	
13	0	0	0	0	505	
14	0	0	0	0	501	
15	0	0	0	0	501	
0	0	0	0	0	510	
1	0	0	0	0	518	
2	0	0	0	0	524	
3	0	0	0	0	528	
4	0	0	0	0	534	
5	0	0	0	0	531	
6	0	0	0	0	522	
7	0	0	0	0	509	
8	0	0	0	0	499	
9	0	0	0	0	493	
10	0	0	0	0	480	
11	0	0	0	0	470	
12	0	0	0	0	462	
13	0	0	0	0	456	
14	0	0	0	0	454	
15	0	0	0	0	452	
0	0	0	0	0	455	
1	0	0	0	0	460	
2	0	0	0	0	463	
3	0	0	0	0	467	
4	0	0	0	0	468	
5	0	0	0	0	467	
6	0	0	0	0	465	
7	0	0	0	0	463	
8	0	0	0	0	465	
9	0	0	0	0	472	
10	0	0	0	0	477	
11	0	0	0	0	483	
12	0	0	0	0	484	
13	0	0	0	0	475	
14	0	0	0	0	459	
15	0	0	0	0	445	
0	0	0	0	0	434	
1	0	0	0	0	430	
2	0	0	0	0	423	
3	0	0	0	0	418	
4	0	0	0	0	415	
5	0	0	0	0	410	
6	0	0	0	0	416	
7	0	0	0	0	426	
8	0	0	0	0	432	
9	0	0	0	0	437	
10	0	0	0	0	436	
11	0	0	0	0	435	
12	0	0	0	0	433	
13	0	0	0	0	428	
14	0	0	0	0	426	
15	0	0	0	0	429	
0	0	0	0	0	428	
1	0	0	0	0	431	
2	0	0	0	0	432	
3	0	0	0	0	426	
4	0	0	0	0	421	
5	0	0	0	0	423	
6	0	0	0	0	432	
7	0	0	0	0	432	
8	0	0	0	0	431	
9	0	0	0	0	426	
10	0	0	0	0	424	
11	0	0	0	0	426	
12	0	0	0	0	425	
13	0	0	0	0	420	
14	0	0	0	0	415	
15	0	0	0	0	411	
0	0	0	0	0	407	
1	0	0	0	0	404	
2	0	0	0	0	401	
3	0	0	0	0	403	
4	0	0	0	0	409	
5	0	0	0	0	415	
6	0	0	0	0	420	
7	0	0	0	0	420	
8	0	0	0	0	420	
9	0	0	0	0	417	
10	0	0	0	0	411	
11	0	0	0	0	406	
12	0	0	0	0	408	
13	0	0	0	0	415	
14	0	0	0	0	416	
15	0	0	0	0	417	
0	0	0	0	0	423	
1	0	0	0	0	435	
2	0	0	0	0	435	
3	0	0	0	0	429	
4	0	0	0	0	421	
5	0	0	0	0	417	
6	0	0	0	0	417	
7	0	0	0	0	421	
8	0	0	0	0	423	
9	0	0	0	0	423	
10	0	0	0	0	420	
11	0	0	0	0	415	
12	0	0	0	0	409	
13	0	0	0	0	402	
14	0	0	0	0	399	
15	0	0	0	0	406	
0	0	0	0	0	412	
1	0	0	0	0	415	
2	0	0	0	0	413	
3	0	0	0	0	413	
4	0	0	0	0	408	
5	0	0	0	0	401	
6	0	0	0	0	391	
7	0	0	0	0	390	
8	0	0	0	0	392	
9	0	0	0	0	398	
10	0	0	0	0	412	
11	0	0	0	0	428	
12	0	0	0	0	440	
13	0	0	0	0	439	
14	0	0	0	0	434	
15	0	0	0	0	438	
0	0	0	0	0	445	
1	0	0	0	0	451	
2	0	0	0	0	452	
3	0	0	0	0	446	
4	0	0	0	0	444	
5	0	0	0	0	446	
6	0	0	0	0	443	
7	0	0	0	0	439	
8	0	0	0	0	439	
9	0	0	0	0	441	
10	0	0	0	0	443	
11	0	0	0	0	444	
12	0	0	0	0	447	
13	0	0	0	0	449	
14	0	0	0	0	451	
15	0	0	0	0	454	
0	0	0	0	0	460	
1	0	0	0	0	461	
2	0	0	0	0	460	
3	0	0	0	0	456	
4	0	0	0	0	456	
5	0	0	0	0	461	
6	0	0	0	0	457	
7	0	0	0	0	440	
8	0	0	0	0	428	
9	0	0	0	0	439	
10	0	0	0	0	448	
11	0	0	0	0	451	
12	0	0	0	0	452	
13	0	0	0	0	451	
14	0	0	0	0	448	
15	0	0	0	0	443	
0	0	0	0	0	436	
1	0	0	0	0	436	
2	0	0	0	0	439	
3	0	0	0	0	440	
4	0	0	0	0	443	
5	0	0	0	0	450	
6	0	0	0	0	457	
7	0	0	0	0	459	
8	0	0	0	0	454	
9	0	0	0	0	447	
10	0	0	0	0	441	
11	0	0	0	0	435	
12	0	0	0	0	428	
13	0	0	0	0	424	
14	0	0	0	0	430	
15	0	0	0	0	440	
0	0	0	0	0	446	
1	0	0	0	0	456	
2	0	0	0	0	461	
3	0	0	0	0	469	
4	0	0	0	0	479	
5	0	0	0	0	488	
6	0	0	0	0	495	
7	0	0	0	0	493	
8	0	0	0	0	483	
9	0	0	0	0	473	
10	0	0	0	0	465	
11	0	0	0	0	454	
12	0	0	0	0	444	
13	0	0	0	0	439	
14	0	0	0	0	438	
15	0	0	0	0	437	
0	0	0	0	0	435	
1	0	0	0	0	438	
2	0	0	0	0	445	
3	0	0	0	0	456	
4	0	0	0	0	463	
5	0	0	0	0	462	
6	0	0	0	0	458	
7	0	0	0	0	449	
8	0	0	0	0	439	
9	0	0	0	0	436	
10	0	0	0	0	447	
11	0	0	0	0	459	
12	0	0	0	0	461	
13	0	0	0	0	459	
14	0	0	0	0	462	
15	0	0	0	0	462	
0	0	0	0	0	465	
1	0	0	0	0	467	
2	0	0	0	0	465	
3	0	0	0	0	464	
4	0	0	0	0	467	
5	0	0	0	0	467	
6	0	0	0	0	473	
7	0	0	0	0	480	
8	0	0	0	0	487	
9	0	0	0	0	488	
10	0	0	0	0	488	
11	0	0	0	0	490	
12	0	0	0	0	484	
13	0	0	0	0	480	
14	0	0	0	0	477	
15	0	0	0	0	473	
0	0	0	0	0	471	
1	0	0	0	0	467	
2	0	0	0	0	464	
3	0	0	0	0	465	
4	0	0	0	0	471	
5	0	0	0	0	479	
6	0	0	0	0	478	
7	0	0	0	0	476	
8	0	0	0	0	474	
9	0	0	0	0	472	
10	0	0	0	0	472	
11	0	0	0	0	471	
12	0	0	0	0	475	
13	0	0	0	0	478	
14	0	0	0	0	483	
15	0	0	0	0	484	
0	0	0	0	0	485	
1	0	0	0	0	483	
2	0	0	0	0	487	
3	0	0	0	0	493	
4	0	0	0	0	491	
5	0	0	0	0	488	
6	0	0	0	0	488	
7	0	0	0	0	480	
8	0	0	0	0	465	
9	0	0	0	0	453	
10	0	0	0	0	448	
11	0	0	0	0	445	
12	0	0	0	0	446	
13	0	0	0	0	448	
14	0	0	0	0	455	
15	0	0	0	0	462	
0	0	0	0	0	457	
1	0	0	0	0	457	
2	0	0	0	0	466	
3	0	0	0	0	479	
4	0	0	0	0	480	
5	0	0	0	0	475	
6	0	0	0	0	473	
7	0	0	0	0	471	
8	0	0	0	0	467	
9	0	0	0	0	472	
10	0	0	0	0	475	
11	0	0	0	0	472	
12	0	0	0	0	469	
13	0	0	0	0	465	
14	0	0	0	0	462	
15	0	0	0	0	464	
0	0	0	0	0	468	
1	0	0	0	0	467	
2	0	0	0	0	464	
3	0	0	0	0	463	
4	0	0	0	0	468	
5	0	0	0	0	468	
6	0	0	0	0	467	
7	0	0	0	0	465	
8	0	0	0	0	464	
9	0	0	0	0	464	
10	0	0	0	0	469	
11	0	0	0	0	475	
12	0	0	0	0	481	
13	0	0	0	0	486	
14	0	0	0	0	483	
15	0	0	0	0	477	
0	0	0	0	0	470	
1	0	0	0	0	466	
2	0	0	0	0	462	
3	0	0	0	0	452	
4	0	0	0	0	441	
5	0	0	0	0	428	
6	0	0	0	0	424	
7	0	0	0	0	422	
8	0	0	0	0	423	
9	0	0	0	0	428	
10	0	0	0	0	438	
11	0	0	0	0	451	
12	0	0	0	0	466	
13	0	0	0	0	477	
14	0	0	0	0	486	
15	0	0	0	0	484	
0	0	0	0	0	478	
1	0	0	0	0	470	
2	0	0	0	0	460	
3	0	0	0	0	454	
4	0	0	0	0	449	
5	0	0	0	0	444	
6	0	0	0	0	439	
7	0	0	0	0	433	
8	0	0	0	0	432	
9	0	0	0	0	429	
10	0	0	0	0	424	
11	0	0	0	0	422	
12	0	0	0	0	426	
13	0	0	0	0	435	
14	0	0	0	0	445	
15	0	0	0	0	455	
0	0	0	0	0	462	
1	0	0	0	0	472	
2	0	0	0	0	474	
3	0	0	0	0	465	
4	0	0	0	0	459	
5	0	0	0	0	451	
6	0	0	0	0	441	
7	0	0	0	0	438	
8	0	0	0	0	440	
9	0	0	0	0	441	
10	0	0	0	0	440	
11	0	0	0	0	446	
12	0	0	0	0	451	
13	0	0	0	0	451	
14	0	0	0	0	452	
15	0	0	0	0	457	
0	0	0	0	0	460	
1	0	0	0	0	467	
2	0	0	0	0	481	
3	0	0	0	0	491	
4	0	0	0	0	500	
5	0	0	0	0	514	
6	0	0	0	0	527	
7	0	0	0	0	536	
8	0	0	0	0	545	
9	0	0	0	0	559	
10	0	0	0	0	579	
11	0	0	0	0	599	
12	0	0	0	0	622	
13	0	0	0	0	646	
14	0	0	0	0	664	
15	0	0	0	0	686	
0	0	0	0	0	705	
1	0	0	0	0	726	
2	0	0	0	0	742	
3	0	0	0	0	755	
4	0	0	0	0	769	
5	0	0	0	0	779	
6	0	0	0	0	785	
7	0	0	0	0	784	
8	0	0	0	0	779	
9	0	0	0	0	766	
10	0	0	0	0	752	
11	0	0	0	0	736	
12	0	0	0	0	718	
13	0	0	0	0	694	
14	0	0	0	0	666	
15	0	0	0	0	638	
0	0	0	0	0	609	
1	0	0	0	0	581	
2	0	0	0	0	550	
3	0	0	0	0	522	
4	0	0	0	0	497	
5	0	0	0	0	468	
6	0	0	0	0	441	
7	0	0	0	0	414	
8	0	0	0	0	389	
9	0	0	0	0	375	
10	0	0	0	0	368	
11	0	0	0	0	363	
12	0	0	0	0	359	
13	0	0	0	0	363	
14	0	0	0	0	363	
15	0	0	0	0	361	
0	0	0	0	0	359	
1	0	0	0	0	356	
2	0	0	0	0	349	
3	0	0	0	0	345	
4	0	0	0	0	352	
5	0	0	0	0	362	
6	0	0	0	0	370	
7	0	0	0	0	373	
8	0	0	0	0	375	
9	0	0	0	0	384	
10	0	0	0	0	390	
11	0	0	0	0	391	
12	0	0	0	0	400	
13	0	0	0	0	411	
14	0	0	0	0	416	
15	0	0	0	0	419	
0	0	0	0	0	425	
1	0	0	0	0	427	
2	0	0	0	0	433	
3	0	0	0	0	437	
4	0	0	0	0	435	
5	0	0	0	0	434	
6	0	0	0	0	435	
7	0	0	0	0	436	
8	0	0	0	0	437	
9	0	0	0	0	439	
10	0	0	0	0	438	
11	0	0	0	0	432	
12	0	0	0	0	435	
13	0	0	0	0	444	
14	0	0	0	0	446	
15	0	0	0	0	448	
0	0	0	0	0	456	
1	0	0	0	0	461	
2	0	0	0	0	460	
3	0	0	0	0	454	
4	0	0	0	0	447	
5	0	0	0	0	444	
6	0	0	0	0	444	
7	0	0	0	0	443	
8	0	0	0	0	442	
9	0	0	0	0	438	
10	0	0	0	0	431	
11	0	0	0	0	424	
12	0	0	0	0	418	
13	0	0	0	0	419	
14	0	0	0	0	424	
15	0	0	0	0	435	
0	0	0	0	0	449	
1	0	0	0	0	455	
2	0	0	0	0	457	
3	0	0	0	0	457	
4	0	0	0	0	459	
5	0	0	0	0	465	
6	0	0	0	0	471	
7	0	0	0	0	477	
8	0	0	0	0	483	
9	0	0	0	0	486	
10	0	0	0	0	484	
11	0	0	0	0	479	
12	0	0	0	0	478	
13	0	0	0	0	477	
14	0	0	0	0	479	
15	0	0	0	0	482	
0	0	0	0	0	485	
1	0	0	0	0	486	
2	0	0	0	0	489	
3	0	0	0	0	487	
4	0	0	0	0	486	
5	0	0	0	0	484	
6	0	0	0	0	474	
7	0	0	0	0	460	
8	0	0	0	0	456	
9	0	0	0	0	461	
10	0	0	0	0	468	
11	0	0	0	0	475	
12	0	0	0	0	478	
13	0	0	0	0	477	
14	0	0	0	0	474	
15	0	0	0	0	470	
0	0	0	0	0	469	
1	0	0	0	0	468	
2	0	0	0	0	471	
3	0	0	0	0	473	
4	0	0	0	0	479	
5	0	0	0	0	487	
6	0	0	0	0	489	
7	0	0	0	0	492	
8	0	0	0	0	490	
9	0	0	0	0	488	
10	0	0	0	0	487	
11	0	0	0	0	492	
12	0	0	0	0	502	
13	0	0	0	0	504	
14	0	0	0	0	502	
15	0	0	0	0	498	
0	0	0	0	0	496	
1	0	0	0	0	496	
2	0	0	0	0	492	
3	0	0	0	0	487	
4	0	0	0	0	481	
5	0	0	0	0	478	
6	0	0	0	0	485	
7	0	0	0	0	496	
8	0	0	0	0	505	
9	0	0	0	0	507	
10	0	0	0	0	507	
11	0	0	0	0	503	
12	0	0	0	0	497	
13	0	0	0	0	489	
14	0	0	0	0	480	
15	0	0	0	0	474	
0	0	0	0	0	476	
1	0	0	0	0	486	
2	0	0	0	0	489	
3	0	0	0	0	488	
4	0	0	0	0	489	
5	0	0	0	0	494	
6	0	0	0	0	500	
7	0	0	0	0	501	
8	0	0	0	0	503	
9	0	0	0	0	505	
10	0	0	0	0	505	
11	0	0	0	0	505	
12	0	0	0	0	505	
13	0	0	0	0	509	
14	0	0	0	0	513	
15	0	0	0	0	512	
0	0	0	0	0	511	
1	0	0	0	0	511	
2	0	0	0	0	505	
3	0	0	0	0	504	
4	0	0	0	0	507	
5	0	0	0	0	512	
6	0	0	0	0	515	
7	0	0	0	0	521	
8	0	0	0	0	526	
9	0	0	0	0	528	
10	0	0	0	0	528	
11	0	0	0	0	530	
12	0	0	0	0	535	
13	0	0	0	0	532	
14	0	0	0	0	533	
15	0	0	0	0	537	
0	0	0	0	0	545	
1	0	0	0	0	551	
2	0	0	0	0	554	
3	0	0	0	0	553	
4	0	0	0	0	551	
5	0	0	0	0	544	
6	0	0	0	0	536	
7	0	0	0	0	537	
8	0	0	0	0	540	
9	0	0	0	0	538	
10	0	0	0	0	539	
11	0	0	0	0	537	
12	0	0	0	0	540	
13	0	0	0	0	543	
14	0	0	0	0	543	
15	0	0	0	0	540	
0	0	0	0	0	543	
1	0	0	0	0	540	
2	0	0	0	0	535	
3	0	0	0	0	532	
4	0	0	0	0	531	
5	0	0	0	0	532	
6	0	0	0	0	530	
7	0	0	0	0	527	
8	0	0	0	0	529	
9	0	0	0	0	536	
10	0	0	0	0	539	
11	0	0	0	0	536	
12	0	0	0	0	531	
13	0	0	0	0	533	
14	0	0	0	0	535	
15	0	0	0	0	537	
0	0	0	0	0	545	
1	0	0	0	0	552	
2	0	0	0	0	553	
3	0	0	0	0	554	
4	0	0	0	0	555	
5	0	0	0	0	555	
6	0	0	0	0	548	
7	0	0	0	0	529	
8	0	0	0	0	510	
9	0	0	0	0	494	
10	0	0	0	0	484	
11	0	0	0	0	487	
12	0	0	0	0	496	
13	0	0	0	0	497	
14	0	0	0	0	493	
15	0	0	0	0	492	
0	0	0	0	0	489	
1	0	0	0	0	485	
2	0	0	0	0	490	
3	0	0	0	0	501	
4	0	0	0	0	510	
5	0	0	0	0	512	
6	0	0	0	0	513	
7	0	0	0	0	509	
8	0	0	0	0	504	
9	0	0	0	0	498	
10	0	0	0	0	494	
11	0	0	0	0	502	
12	0	0	0	0	513	
13	0	0	0	0	522	
14	0	0	0	0	524	
15	0	0	0	0	524	
0	0	0	0	0	521	
1	0	0	0	0	519	
2	0	0	0	0	516	
3	0	0	0	0	511	
4	0	0	0	0	507	
5	0	0	0	0	508	
6	0	0	0	0	507	
7	0	0	0	0	502	
8	0	0	0	0	495	
9	0	0	0	0	489	
10	0	0	0	0	487	
11	0	0	0	0	481	
12	0	0	0	0	475	
13	0	0	0	0	476	
14	0	0	0	0	472	
15	0	0	0	0	467	
0	0	0	0	0	462	
1	0	0	0	0	461	
2	0	0	0	0	463	
3	0	0	0	0	464	
4	0	0	0	0	468	
5	0	0	0	0	472	
6	0	0	0	0	471	
7	0	0	0	0	473	
8	0	0	0	0	474	
9	0	0	0	0	474	
10	0	0	0	0	476	
11	0	0	0	0	479	
12	0	0	0	0	478	
13	0	0	0	0	476	
14	0	0	0	0	480	
15	0	0	0	0	484	
0	0	0	0	0	483	
1	0	0	0	0	478	
2	0	0	0	0	475	
3	0	0	0	0	470	
4	0	0	0	0	460	
5	0	0	0	0	457	
6	0	0	0	0	461	
7	0	0	0	0	466	
8	0	0	0	0	464	
9	0	0	0	0	456	
10	0	0	0	0	449	
11	0	0	0	0	454	
12	0	0	0	0	466	
13	0	0	0	0	466	
14	0	0	0	0	459	
15	0	0	0	0	451	
0	0	0	0	0	445	
1	0	0	0	0	451	
2	0	0	0	0	461	
3	0	0	0	0	462	
4	0	0	0	0	459	
5	0	0	0	0	461	
6	0	0	0	0	470	
7	0	0	0	0	476	
8	0	0	0	0	479	
9	0	0	0	0	480	
10	0	0	0	0	479	
11	0	0	0	0	478	
12	0	0	0	0	480	
13	0	0	0	0	482	
14	0	0	0	0	482	
15	0	0	0	0	483	
0	0	0	0	0	482	
1	0	0	0	0	480	
2	0	0	0	0	483	
3	0	0	0	0	483	
4	0	0	0	0	485	
5	0	0	0	0	485	
6	0	0	0	0	480	
7	0	0	0	0	476	
8	0	0	0	0	474	
9	0	0	0	0	471	
10	0	0	0	0	475	
11	0	0	0	0	483	
12	0	0	0	0	492	
13	0	0	0	0	503	
14	0	0	0	0	512	
15	0	0	0	0	509	
0	0	0	0	0	496	
1	0	0	0	0	483	
2	0	0	0	0	477	
3	0	0	0	0	477	
4	0	0	0	0	480	
5	0	0	0	0	484	
6	0	0	0	0	488	
7	0	0	0	0	493	
8	0	0	0	0	493	
9	0	0	0	0	490	
10	0	0	0	0	488	
11	0	0	0	0	487	
12	0	0	0	0	488	
13	0	0	0	0	491	
14	0	0	0	0	496	
15	0	0	0	0	504	
0	0	0	0	0	512	
1	0	0	0	0	513	
2	0	0	0	0	511	
3	0	0	0	0	507	
4	0	0	0	0	505	
5	0	0	0	0	505	
6	0	0	0	0	506	
7	0	0	0	0	503	
8	0	0	0	0	503	
9	0	0	0	0	499	
10	0	0	0	0	495	
11	0	0	0	0	495	
12	0	0	0	0	494	
13	0	0	0	0	490	
14	0	0	0	0	492	
15	0	0	0	0	490	
0	0	0	0	0	491	
1	0	0	0	0	494	
2	0	0	0	0	494	
3	0	0	0	0	496	
4	0	0	0	0	497	
5	0	0	0	0	495	
6	0	0	0	0	491	
7	0	0	0	0	489	
8	0	0	0	0	490	
9	0	0	0	0	492	
10	0	0	0	0	494	
11	0	0	0	0	499	
12	0	0	0	0	502	
13	0	0	0	0	503	
14	0	0	0	0	496	
15	0	0	0	0	485	
0	0	0	0	0	481	
1	0	0	0	0	487	
2	0	0	0	0	496	
3	0	0	0	0	499	
4	0	0	0	0	505	
5	0	0	0	0	511	
6	0	0	0	0	506	
7	0	0	0	0	498	
8	0	0	0	0	493	
9	0	0	0	0	489	
10	0	0	0	0	492	
11	0	0	0	0	501	
12	0	0	0	0	502	
13	0	0	0	0	500	
14	0	0	0	0	504	
15	0	0	0	0	508	
0	0	0	0	0	512	
1	0	0	0	0	515	
2	0	0	0	0	514	
3	0	0	0	0	510	
4	0	0	0	0	507	
5	0	0	0	0	508	
6	0	0	0	0	513	
7	0	0	0	0	517	
8	0	0	0	0	516	
9	0	0	0	0	513	
10	0	0	0	0	508	
11	0	0	0	0	503	
12	0	0	0	0	500	
13	0	0	0	0	498	
14	0	0	0	0	495	
15	0	0	0	0	493	
0	0	0	0	0	495	
1	0	0	0	0	499	
2	0	0	0	0	505	
3	0	0	0	0	507	
4	0	0	0	0	509	
5	0	0	0	0	513	
6	0	0	0	0	524	
7	0	0	0	0	531	
8	0	0	0	0	530	
9	0	0	0	0	530	
10	0	0	0	0	526	
11	0	0	0	0	512	
12	0	0	0	0	504	
13	0	0	0	0	506	
14	0	0	0	0	510	
15	0	0	0	0	516	
0	0	0	0	0	524	
1	0	0	0	0	529	
2	0	0	0	0	531	
3	0	0	0	0	531	
4	0	0	0	0	527	
5	0	0	0	0	521	
6	0	0	0	0	512	
7	0	0	0	0	508	
8	0	0	0	0	502	
9	0	0	0	0	492	
10	0	0	0	0	482	
11	0	0	0	0	478	
12	0	0	0	0	479	
13	0	0	0	0	478	
14	0	0	0	0	482	
15	0	0	0	0	501	
0	0	0	0	0	516	
1	0	0	0	0	525	
2	0	0	0	0	531	
3	0	0	0	0	532	
4	0	0	0	0	526	
5	0	0	0	0	518	
6	0	0	0	0	518	
7	0	0	0	0	522	
8	0	0	0	0	524	
9	0	0	0	0	527	
10	0	0	0	0	530	
11	0	0	0	0	533	
12	0	0	0	0	535	
13	0	0	0	0	541	
14	0	0	0	0	545	
15	0	0	0	0	550	
0	0	0	0	0	554	
1	0	0	0	0	555	
2	0	0	0	0	546	
3	0	0	0	0	537	
4	0	0	0	0	528	
5	0	0	0	0	526	
6	0	0	0	0	527	
7	0	0	0	0	531	
8	0	0	0	0	527	
9	0	0	0	0	519	
10	0	0	0	0	515	
11	0	0	0	0	518	
12	0	0	0	0	521	
13	0	0	0	0	515	
14	0	0	0	0	510	
15	0	0	0	0	513	
0	0	0	0	0	520	
1	0	0	0	0	521	
2	0	0	0	0	521	
3	0	0	0	0	519	
4	0	0	0	0	513	
5	0	0	0	0	507	
6	0	0	0	0	499	
7	0	0	0	0	496	
8	0	0	0	0	502	
9	0	0	0	0	509	
10	0	0	0	0	507	
11	0	0	0	0	505	
12	0	0	0	0	513	
13	0	0	0	0	526	
14	0	0	0	0	534	
15	0	0	0	0	531	
0	0	0	0	0	528	
1	0	0	0	0	522	
2	0	0	0	0	516	
3	0	0	0	0	519	
4	0	0	0	0	519	
5	0	0	0	0	513	
6	0	0	0	0	510	
7	0	0	0	0	507	
8	0	0	0	0	505	
9	0	0	0	0	502	
10	0	0	0	0	498	
11	0	0	0	0	488	
12	0	0	0	0	478	
13	0	0	0	0	474	
14	0	0	0	0	473	
15	0	0	0	0	472	
0	0	0	0	0	475	
1	0	0	0	0	482	
2	0	0	0	0	491	
3	0	0	0	0	494	
4	0	0	0	0	496	
5	0	0	0	0	498	
6	0	0	0	0	499	
7	0	0	0	0	501	
8	0	0	0	0	500	
9	0	0	0	0	493	
10	0	0	0	0	487	
11	0	0	0	0	490	
12	0	0	0	0	494	
13	0	0	0	0	497	
14	0	0	0	0	498	
15	0	0	0	0	500	
0	0	0	0	0	503	
1	0	0	0	0	504	
2	0	0	0	0	505	
3	0	0	0	0	508	
4	0	0	0	0	511	
5	0	0	0	0	508	
6	0	0	0	0	508	
7	0	0	0	0	511	
8	0	0	0	0	510	
9	0	0	0	0	509	
10	0	0	0	0	505	
11	0	0	0	0	495	
12	0	0	0	0	486	
13	0	0	0	0	483	
14	0	0	0	0	483	
15	0	0	0	0	488	
0	0	0	0	0	494	
1	0	0	0	0	496	
2	0	0	0	0	493	
3	0	0	0	0	489	
4	0	0	0	0	483	
5	0	0	0	0	489	
6	0	0	0	0	499	
7	0	0	0	0	503	
8	0	0	0	0	504	
9	0	0	0	0	515	
10	0	0	0	0	540	
11	0	0	0	0	561	
12	0	0	0	0	575	
13	0	0	0	0	588	
14	0	0	0	0	603	
15	0	0	0	0	623	
0	0	0	0	0	639	
1	0	0	0	0	657	
2	0	0	0	0	673	
3	0	0	0	0	692	
4	0	0	0	0	710	
5	0	0	0	0	730	
6	0	0	0	0	753	
7	0	0	0	0	780	
8	0	0	0	0	799	
9	0	0	0	0	811	
10	0	0	0	0	825	
11	0	0	0	0	839	
12	0	0	0	0	841	
13	0	0	0	0	832	
14	0	0	0	0	822	
15	0	0	0	0	812	
0	0	0	0	0	796	
1	0	0	0	0	772	
2	0	0	0	0	743	
3	0	0	0	0	711	
4	0	0	0	0	681	
5	0	0	0	0	653	
6	0	0	0	0	621	
7	0	0	0	0	590	
8	0	0	0	0	562	
9	0	0	0	0	527	
10	0	0	0	0	492	
11	0	0	0	0	465	
12	0	0	0	0	443	
13	0	0	0	0	424	
14	0	0	0	0	412	
15	0	0	0	0	406	
0	0	0	0	0	404	
1	0	0	0	0	413	
2	0	0	0	0	419	
3	0	0	0	0	418	
4	0	0	0	0	416	
5	0	0	0	0	415	
6	0	0	0	0	416	
7	0	0	0	0	419	
8	0	0	0	0	422	
9	0	0	0	0	425	
10	0	0	0	0	425	
11	0	0	0	0	424	
12	0	0	0	0	426	
13	0	0	0	0	425	
14	0	0	0	0	425	
15	0	0	0	0	427	
0	0	0	0	0	426	
1	0	0	0	0	423	
2	0	0	0	0	423	
3	0	0	0	0	430	
4	0	0	0	0	442	
5	0	0	0	0	453	
6	0	0	0	0	463	
7	0	0	0	0	470	
8	0	0	0	0	470	
9	0	0	0	0	470	
10	0	0	0	0	473	
11	0	0	0	0	472	
12	0	0	0	0	471	
13	0	0	0	0	470	
14	0	0	0	0	470	
15	0	0	0	0	468	
0	0	0	0	0	470	
1	0	0	0	0	470	
2	0	0	0	0	472	
3	0	0	0	0	481	
4	0	0	0	0	487	
5	0	0	0	0	482	
6	0	0	0	0	471	
7	0	0	0	0	464	
8	0	0	0	0	468	
9	0	0	0	0	471	
10	0	0	0	0	471	
11	0	0	0	0	472	
12	0	0	0	0	475	
13	0	0	0	0	481	
14	0	0	0	0	487	
15	0	0	0	0	495	
0	0	0	0	0	500	
1	0	0	0	0	502	
2	0	0	0	0	506	
3	0	0	0	0	509	
4	0	0	0	0	513	
5	0	0	0	0	520	
6	0	0	0	0	527	
7	0	0	0	0	528	
8	0	0	0	0	529	
9	0	0	0	0	525	
10	0	0	0	0	511	
11	0	0	0	0	496	
12	0	0	0	0	490	
13	0	0	0	0	486	
14	0	0	0	0	483	
15	0	0	0	0	486	
0	0	0	0	0	492	
1	0	0	0	0	496	
2	0	0	0	0	497	
3	0	0	0	0	496	
4	0	0	0	0	494	
5	0	0	0	0	493	
6	0	0	0	0	493	
7	0	0	0	0	493	
8	0	0	0	0	491	
9	0	0	0	0	489	
10	0	0	0	0	496	
11	0	0	0	0	503	
12	0	0	0	0	503	
13	0	0	0	0	502	
14	0	0	0	0	497	
15	0	0	0	0	490	
0	0	0	0	0	490	
1	0	0	0	0	495	
2	0	0	0	0	499	
3	0	0	0	0	504	
4	0	0	0	0	504	
5	0	0	0	0	505	
6	0	0	0	0	505	
7	0	0	0	0	501	
8	0	0	0	0	497	
9	0	0	0	0	496	
10	0	0	0	0	502	
11	0	0	0	0	511	
12	0	0	0	0	514	
13	0	0	0	0	517	
14	0	0	0	0	521	
15	0	0	0	0	525	
0	0	0	0	0	527	
1	0	0	0	0	526	
2	0	0	0	0	526	
3	0	0	0	0	523	
4	0	0	0	0	520	
5	0	0	0	0	518	
6	0	0	0	0	518	
7	0	0	0	0	516	
8	0	0	0	0	512	
9	0	0	0	0	510	
10	0	0	0	0	512	
11	0	0	0	0	520	
12	0	0	0	0	532	
13	0	0	0	0	537	
14	0	0	0	0	538	
15	0	0	0	0	534	
0	0	0	0	0	531	
1	0	0	0	0	529	
2	0	0	0	0	524	
3	0	0	0	0	520	
4	0	0	0	0	522	
5	0	0	0	0	528	
6	0	0	0	0	533	
7	0	0	0	0	535	
8	0	0	0	0	531	
9	0	0	0	0	527	
10	0	0	0	0	534	
11	0	0	0	0	545	
12	0	0	0	0	556	
13	0	0	0	0	560	
14	0	0	0	0	554	
15	0	0	0	0	545	
0	0	0	0	0	536	
1	0	0	0	0	530	
2	0	0	0	0	526	
3	0	0	0	0	530	
4	0	0	0	0	538	
5	0	0	0	0	545	
6	0	0	0	0	556	
7	0	0	0	0	559	
8	0	0	0	0	554	
9	0	0	0	0	545	
10	0	0	0	0	538	
11	0	0	0	0	535	
12	0	0	0	0	535	
13	0	0	0	0	535	
14	0	0	0	0	531	
15	0	0	0	0	529	
0	0	0	0	0	527	
1	0	0	0	0	529	
2	0	0	0	0	534	
3	0	0	0	0	537	
4	0	0	0	0	536	
5	0	0	0	0	537	
6	0	0	0	0	543	
7	0	0	0	0	547	
8	0	0	0	0	550	
9	0	0	0	0	543	
10	0	0	0	0	538	
11	0	0	0	0	539	
12	0	0	0	0	536	
13	0	0	0	0	528	
14	0	0	0	0	524	
15	0	0	0	0	524	
0	0	0	0	0	526	
1	0	0	0	0	534	
2	0	0	0	0	542	
3	0	0	0	0	543	
4	0	0	0	0	543	
5	0	0	0	0	544	
6	0	0	0	0	544	
7	0	0	0	0	545	
8	0	0	0	0	550	
9	0	0	0	0	547	
10	0	0	0	0	536	
11	0	0	0	0	526	
12	0	0	0	0	527	
13	0	0	0	0	535	
14	0	0	0	0	539	
15	0	0	0	0	543	
0	0	0	0	0	548	
1	0	0	0	0	551	
2	0	0	0	0	549	
3	0	0	0	0	543	
4	0	0	0	0	536	
5	0	0	0	0	534	
6	0	0	0	0	534	
7	0	0	0	0	536	
8	0	0	0	0	540	
9	0	0	0	0	542	
10	0	0	0	0	543	
11	0	0	0	0	542	
12	0	0	0	0	540	
13	0	0	0	0	535	
14	0	0	0	0	527	
15	0	0	0	0	522	
0	0	0	0	0	515	
1	0	0	0	0	514	
2	0	0	0	0	519	
3	0	0	0	0	523	
4	0	0	0	0	524	
5	0	0	0	0	524	
6	0	0	0	0	522	
7	0	0	0	0	515	
8	0	0	0	0	507	
9	0	0	0	0	504	
10	0	0	0	0	505	
11	0	0	0	0	508	
12	0	0	0	0	510	
13	0	0	0	0	512	
14	0	0	0	0	510	
15	0	0	0	0	510	
0	0	0	0	0	515	
1	0	0	0	0	516	
2	0	0	0	0	517	
3	0	0	0	0	518	
4	0	0	0	0	517	
5	0	0	0	0	510	
6	0	0	0	0	501	
7	0	0	0	0	495	
8	0	0	0	0	486	
9	0	0	0	0	478	
10	0	0	0	0	472	
11	0	0	0	0	474	
12	0	0	0	0	477	
13	0	0	0	0	472	
14	0	0	0	0	467	
15	0	0	0	0	469	
0	0	0	0	0	472	
1	0	0	0	0	473	
2	0	0	0	0	473	
3	0	0	0	0	470	
4	0	0	0	0	463	
5	0	0	0	0	457	
6	0	0	0	0	454	
7	0	0	0	0	458	
8	0	0	0	0	463	
9	0	0	0	0	465	
10	0	0	0	0	467	
11	0	0	0	0	471	
12	0	0	0	0	474	
13	0	0	0	0	476	
14	0	0	0	0	479	
15	0	0	0	0	478	
0	0	0	0	0	476	
1	0	0	0	0	479	
2	0	0	0	0	481	
3	0	0	0	0	478	
4	0	0	0	0	470	
5	0	0	0	0	465	
6	0	0	0	0	466	
7	0	0	0	0	464	
8	0	0	0	0	459	
9	0	0	0	0	452	
10	0	0	0	0	449	
11	0	0	0	0	449	
12	0	0	0	0	451	
13	0	0	0	0	454	
14	0	0	0	0	459	
15	0	0	0	0	469	
0	0	0	0	0	477	
1	0	0	0	0	475	
2	0	0	0	0	470	
3	0	0	0	0	466	
4	0	0	0	0	465	
5	0	0	0	0	471	
6	0	0	0	0	481	
7	0	0	0	0	484	
8	0	0	0	0	477	
9	0	0	0	0	467	
10	0	0	0	0	461	
11	0	0	0	0	462	
12	0	0	0	0	468	
13	0	0	0	0	471	
14	0	0	0	0	473	
15	0	0	0	0	478	
0	0	0	0	0	480	
1	0	0	0	0	483	
2	0	0	0	0	483	
3	0	0	0	0	482	
4	0	0	0	0	477	
5	0	0	0	0	468	
6	0	0	0	0	460	
7	0	0	0	0	456	
8	0	0	0	0	451	
9	0	0	0	0	451	
10	0	0	0	0	456	
11	0	0	0	0	459	
12	0	0	0	0	463	
13	0	0	0	0	473	
14	0	0	0	0	481	
15	0	0	0	0	488	
0	0	0	0	0	493	
1	0	0	0	0	497	
2	0	0	0	0	501	
3	0	0	0	0	497	
4	0	0	0	0	491	
5	0	0	0	0	483	
6	0	0	0	0	481	
7	0	0	0	0	480	
8	0	0	0	0	479	
9	0	0	0	0	485	
10	0	0	0	0	492	
11	0	0	0	0	494	
12	0	0	0	0	495	
13	0	0	0	0	497	
14	0	0	0	0	492	
15	0	0	0	0	486	
0	0	0	0	0	484	
1	0	0	0	0	486	
2	0	0	0	0	486	
3	0	0	0	0	483	
4	0	0	0	0	476	
5	0	0	0	0	467	
6	0	0	0	0	459	
7	0	0	0	0	455	
8	0	0	0	0	457	
9	0	0	0	0	459	
10	0	0	0	0	456	
11	0	0	0	0	459	
12	0	0	0	0	465	
13	0	0	0	0	475	
14	0	0	0	0	484	
15	0	0	0	0	490	
0	0	0	0	0	490	
1	0	0	0	0	492	
2	0	0	0	0	496	
3	0	0	0	0	499	
4	0	0	0	0	495	
5	0	0	0	0	497	
6	0	0	0	0	500	
7	0	0	0	0	500	
8	0	0	0	0	500	
9	0	0	0	0	502	
10	0	0	0	0	497	
11	0	0	0	0	493	
12	0	0	0	0	491	
13	0	0	0	0	491	
14	0	0	0	0	487	
15	0	0	0	0	485	
0	0	0	0	0	485	
1	0	0	0	0	484	
2	0	0	0	0	483	
3	0	0	0	0	481	
4	0	0	0	0	481	
5	0	0	0	0	483	
6	0	0	0	0	482	
7	0	0	0	0	478	
8	0	0	0	0	477	
9	0	0	0	0	482	
10	0	0	0	0	483	
11	0	0	0	0	481	
12	0	0	0	0	476	
13	0	0	0	0	472	
14	0	0	0	0	476	
15	0	0	0	0	479	
0	0	0	0	0	483	
1	0	0	0	0	491	
2	0	0	0	0	501	
3	0	0	0	0	504	
4	0	0	0	0	507	
5	0	0	0	0	506	
6	0	0	0	0	503	
7	0	0	0	0	500	
8	0	0	0	0	498	
9	0	0	0	0	499	
10	0	0	0	0	502	
11	0	0	0	0	496	
12	0	0	0	0	487	
13	0	0	0	0	483	
14	0	0	0	0	488	
15	0	0	0	0	495	
0	0	0	0	0	495	
1	0	0	0	0	494	
2	0	0	0	0	491	
3	0	0	0	0	489	
4	0	0	0	0	494	
5	0	0	0	0	499	
6	0	0	0	0	498	
7	0	0	0	0	494	
8	0	0	0	0	489	
9	0	0	0	0	490	
10	0	0	0	0	499	
11	0	0	0	0	507	
12	0	0	0	0	508	
13	0	0	0	0	505	
14	0	0	0	0	504	
15	0	0	0	0	507	
0	0	0	0	0	510	
1	0	0	0	0	508	
2	0	0	0	0	500	
3	0	0	0	0	493	
4	0	0	0	0	484	
5	0	0	0	0	478	
6	0	0	0	0	474	
7	0	0	0	0	467	
8	0	0	0	0	461	
9	0	0	0	0	463	
10	0	0	0	0	464	
11	0	0	0	0	466	
12	0	0	0	0	471	
13	0	0	0	0	475	
14	0	0	0	0	473	
15	0	0	0	0	473	
0	0	0	0	0	479	
1	0	0	0	0	493	
2	0	0	0	0	504	
3	0	0	0	0	516	
4	0	0	0	0	525	
5	0	0	0	0	530	
6	0	0	0	0	527	
7	0	0	0	0	518	
8	0	0	0	0	512	
9	0	0	0	0	510	
10	0	0	0	0	504	
11	0	0	0	0	496	
12	0	0	0	0	487	
13	0	0	0	0	485	
14	0	0	0	0	486	
15	0	0	0	0	483	
0	0	0	0	0	483	
1	0	0	0	0	487	
2	0	0	0	0	491	
3	0	0	0	0	494	
4	0	0	0	0	496	
5	0	0	0	0	500	
6	0	0	0	0	502	
7	0	0	0	0	503	
8	0	0	0	0	504	
9	0	0	0	0	503	
10	0	0	0	0	501	
11	0	0	0	0	499	
12	0	0	0	0	503	
13	0	0	0	0	506	
14	0	0	0	0	510	
15	0	0	0	0	510	
0	0	0	0	0	508	
1	0	0	0	0	510	
2	0	0	0	0	506	
3	0	0	0	0	495	
4	0	0	0	0	488	
5	0	0	0	0	487	
6	0	0	0	0	484	
7	0	0	0	0	479	
8	0	0	0	0	473	
9	0	0	0	0	476	
10	0	0	0	0	484	
11	0	0	0	0	489	
12	0	0	0	0	492	
13	0	0	0	0	493	
14	0	0	0	0	494	
15	0	0	0	0	487	
0	0	0	0	0	481	
1	0	0	0	0	480	
2	0	0	0	0	478	
3	0	0	0	0	477	
4	0	0	0	0	478	
5	0	0	0	0	478	
6	0	0	0	0	474	
7	0	0	0	0	466	
8	0	0	0	0	466	
9	0	0	0	0	470	
10	0	0	0	0	471	
11	0	0	0	0	472	
12	0	0	0	0	473	
13	0	0	0	0	472	
14	0	0	0	0	474	
15	0	0	0	0	478	
0	0	0	0	0	481	
1	0	0	0	0	484	
2	0	0	0	0	485	
3	0	0	0	0	483	
4	0	0	0	0	477	
5	0	0	0	0	472	
6	0	0	0	0	470	
7	0	0	0	0	474	
8	0	0	0	0	478	
9	0	0	0	0	482	
10	0	0	0	0	482	
11	0	0	0	0	485	
12	0	0	0	0	490	
13	0	0	0	0	490	
14	0	0	0	0	484	
15	0	0	0	0	478	
0	0	0	0	0	472	
1	0	0	0	0	471	
2	0	0	0	0	477	
3	0	0	0	0	488	
4	0	0	0	0	499	
5	0	0	0	0	509	
6	0	0	0	0	510	
7	0	0	0	0	504	
8	0	0	0	0	499	
9	0	0	0	0	494	
10	0	0	0	0	490	
11	0	0	0	0	489	
12	0	0	0	0	488	
13	0	0	0	0	489	
14	0	0	0	0	492	
15	0	0	0	0	496	
0	0	0	0	0	497	
1	0	0	0	0	496	
2	0	0	0	0	493	
3	0	0	0	0	491	
4	0	0	0	0	486	
5	0	0	0	0	475	
6	0	0	0	0	464	
7	0	0	0	0	459	
8	0	0	0	0	462	
9	0	0	0	0	463	
10	0	0	0	0	465	
11	0	0	0	0	472	
12	0	0	0	0	479	
13	0	0	0	0	487	
14	0	0	0	0	499	
15	0	0	0	0	506	
0	0	0	0	0	513	
1	0	0	0	0	521	
2	0	0	0	0	534	
3	0	0	0	0	542	
4	0	0	0	0	559	
5	0	0	0	0	588	
6	0	0	0	0	615	
7	0	0	0	0	636	
8	0	0	0	0	654	
9	0	0	0	0	681	
10	0	0	0	0	706	
11	0	0	0	0	725	
12	0	0	0	0	745	
13	0	0	0	0	768	
14	0	0	0	0	786	
15	0	0	0	0	800	
0	0	0	0	0	812	
1	0	0	0	0	824	
2	0	0	0	0	835	
3	0	0	0	0	838	
4	0	0	0	0	831	
5	0	0	0	0	812	
6	0	0	0	0	787	
7	0	0	0	0	763	
8	0	0	0	0	737	
9	0	0	0	0	711	
10	0	0	0	0	686	
11	0	0	0	0	660	
12	0	0	0	0	632	
13	0	0	0	0	603	
14	0	0	0	0	569	
15	0	0	0	0	540	
0	0	0	0	0	519	
1	0	0	0	0	494	
2	0	0	0	0	472	
3	0	0	0	0	456	
4	0	0	0	0	438	
5	0	0	0	0	422	
6	0	0	0	0	407	
7	0	0	0	0	397	
8	0	0	0	0	399	
9	0	0	0	0	403	
10	0	0	0	0	414	
11	0	0	0	0	427	
12	0	0	0	0	434	
13	0	0	0	0	432	
14	0	0	0	0	426	
15	0	0	0	0	415	
0	0	0	0	0	400	
1	0	0	0	0	389	
2	0	0	0	0	390	
3	0	0	0	0	397	
4	0	0	0	0	405	
5	0	0	0	0	411	
6	0	0	0	0	416	
7	0	0	0	0	421	
8	0	0	0	0	424	
9	0	0	0	0	429	
10	0	0	0	0	436	
11	0	0	0	0	446	
12	0	0	0	0	451	
13	0	0	0	0	458	
14	0	0	0	0	465	
15	0	0	0	0	467	
0	0	0	0	0	463	
1	0	0	0	0	461	
2	0	0	0	0	462	
3	0	0	0	0	465	
4	0	0	0	0	466	
5	0	0	0	0	463	
6	0	0	0	0	462	
7	0	0	0	0	468	
8	0	0	0	0	472	
9	0	0	0	0	468	
10	0	0	0	0	468	
11	0	0	0	0	475	
12	0	0	0	0	475	
13	0	0	0	0	472	
14	0	0	0	0	479	
15	0	0	0	0	489	
0	0	0	0	0	496	
1	0	0	0	0	497	
2	0	0	0	0	497	
3	0	0	0	0	499	
4	0	0	0	0	502	
5	0	0	0	0	506	
6	0	0	0	0	507	
7	0	0	0	0	508	
8	0	0	0	0	510	
9	0	0	0	0	507	
10	0	0	0	0	504	
11	0	0	0	0	503	
12	0	0	0	0	504	
13	0	0	0	0	504	
14	0	0	0	0	502	
15	0	0	0	0	491	
0	0	0	0	0	481	
1	0	0	0	0	473	
2	0	0	0	0	468	
3	0	0	0	0	470	
4	0	0	0	0	472	
5	0	0	0	0	471	
6	0	0	0	0	467	
7	0	0	0	0	468	
8	0	0	0	0	477	
9	0	0	0	0	487	
10	0	0	0	0	490	
11	0	0	0	0	494	
12	0	0	0	0	494	
13	0	0	0	0	496	
14	0	0	0	0	502	
15	0	0	0	0	507	
0	0	0	0	0	513	
1	0	0	0	0	515	
2	0	0	0	0	516	
3	0	0	0	0	518	
4	0	0	0	0	515	
5	0	0	0	0	512	
6	0	0	0	0	515	
7	0	0	0	0	519	
8	0	0	0	0	516	
9	0	0	0	0	510	
10	0	0	0	0	505	
11	0	0	0	0	502	
12	0	0	0	0	499	
13	0	0	0	0	495	
14	0	0	0	0	496	
15	0	0	0	0	496	
0	0	0	0	0	492	
1	0	0	0	0	493	
2	0	0	0	0	499	
3	0	0	0	0	504	
4	0	0	0	0	508	
5	0	0	0	0	514	
6	0	0	0	0	524	
7	0	0	0	0	533	
8	0	0	0	0	530	
9	0	0	0	0	526	
10	0	0	0	0	524	
11	0	0	0	0	520	
12	0	0	0	0	517	
13	0	0	0	0	512	
14	0	0	0	0	510	
15	0	0	0	0	509	
0	0	0	0	0	504	
1	0	0	0	0	501	
2	0	0	0	0	501	
3	0	0	0	0	508	
4	0	0	0	0	511	
5	0	0	0	0	519	
6	0	0	0	0	528	
7	0	0	0	0	532	
8	0	0	0	0	534	
9	0	0	0	0	536	
10	0	0	0	0	543	
11	0	0	0	0	546	
12	0	0	0	0	545	
13	0	0	0	0	547	
14	0	0	0	0	553	
15	0	0	0	0	555	
0	0	0	0	0	550	
1	0	0	0	0	546	
2	0	0	0	0	541	
3	0	0	0	0	536	
4	0	0	0	0	532	
5	0	0	0	0	526	
6	0	0	0	0	515	
7	0	0	0	0	513	
8	0	0	0	0	520	
9	0	0	0	0	524	
10	0	0	0	0	527	
11	0	0	0	0	533	
12	0	0	0	0	539	
13	0	0	0	0	544	
14	0	0	0	0	547	
15	0	0	0	0	550	
0	0	0	0	0	553	
1	0	0	0	0	556	
2	0	0	0	0	560	
3	0	0	0	0	561	
4	0	0	0	0	557	
5	0	0	0	0	551	
6	0	0	0	0	542	
7	0	0	0	0	536	
8	0	0	0	0	534	
9	0	0	0	0	532	
10	0	0	0	0	530	
11	0	0	0	0	530	
12	0	0	0	0	539	
13	0	0	0	0	549	
14	0	0	0	0	560	
15	0	0	0	0	571	
0	0	0	0	0	579	
1	0	0	0	0	587	
2	0	0	0	0	591	
3	0	0	0	0	595	
4	0	0	0	0	600	
5	0	0	0	0	600	
6	0	0	0	0	590	
7	0	0	0	0	578	
8	0	0	0	0	566	
9	0	0	0	0	550	
10	0	0	0	0	534	
11	0	0	0	0	523	
12	0	0	0	0	522	
13	0	0	0	0	527	
14	0	0	0	0	533	
15	0	0	0	0	541	
0	0	0	0	0	550	
1	0	0	0	0	564	
2	0	0	0	0	573	
3	0	0	0	0	575	
4	0	0	0	0	570	
5	0	0	0	0	571	
6	0	0	0	0	572	
7	0	0	0	0	569	
8	0	0	0	0	566	
9	0	0	0	0	569	
10	0	0	0	0	573	
11	0	0	0	0	572	
12	0	0	0	0	571	
13	0	0	0	0	569	
14	0	0	0	0	568	
15	0	0	0	0	567	
0	0	0	0	0	566	
1	0	0	0	0	560	
2	0	0	0	0	551	
3	0	0	0	0	542	
4	0	0	0	0	537	
5	0	0	0	0	541	
6	0	0	0	0	542	
7	0	0	0	0	532	
8	0	0	0	0	523	
9	0	0	0	0	513	
10	0	0	0	0	505	
11	0	0	0	0	504	
12	0	0	0	0	507	
13	0	0	0	0	508	
14	0	0	0	0	511	
15	0	0	0	0	513	
0	0	0	0	0	513	
1	0	0	0	0	512	
2	0	0	0	0	512	
3	0	0	0	0	517	
4	0	0	0	0	521	
5	0	0	0	0	517	
6	0	0	0	0	505	
7	0	0	0	0	492	
8	0	0	0	0	486	
9	0	0	0	0	489	
10	0	0	0	0	494	
11	0	0	0	0	496	
12	0	0	0	0	499	
13	0	0	0	0	498	
14	0	0	0	0	501	
15	0	0	0	0	508	
0	0	0	0	0	505	
1	0	0	0	0	492	
2	0	0	0	0	481	
3	0	0	0	0	476	
4	0	0	0	0	471	
5	0	0	0	0	467	
6	0	0	0	0	465	
7	0	0	0	0	464	
8	0	0	0	0	464	
9	0	0	0	0	463	
10	0	0	0	0	463	
11	0	0	0	0	468	
12	0	0	0	0	480	
13	0	0	0	0	496	
14	0	0	0	0	502	
15	0	0	0	0	500	
0	0	0	0	0	493	
1	0	0	0	0	484	
2	0	0	0	0	476	
3	0	0	0	0	472	
4	0	0	0	0	476	
5	0	0	0	0	481	
6	0	0	0	0	487	
7	0	0	0	0	492	
8	0	0	0	0	497	
9	0	0	0	0	500	
10	0	0	0	0	504	
11	0	0	0	0	499	
12	0	0	0	0	495	
13	0	0	0	0	492	
14	0	0	0	0	488	
15	0	0	0	0	480	
0	0	0	0	0	476	
1	0	0	0	0	475	
2	0	0	0	0	479	
3	0	0	0	0	483	
4	0	0	0	0	495	
5	0	0	0	0	501	
6	0	0	0	0	504	
7	0	0	0	0	508	
8	0	0	0	0	508	
9	0	0	0	0	505	
10	0	0	0	0	496	
11	0	0	0	0	481	
12	0	0	0	0	464	
13	0	0	0	0	455	
14	0	0	0	0	456	
15	0	0	0	0	459	
0	0	0	0	0	460	
1	0	0	0	0	463	
2	0	0	0	0	468	
3	0	0	0	0	475	
4	0	0	0	0	482	
5	0	0	0	0	488	
6	0	0	0	0	487	
7	0	0	0	0	484	
8	0	0	0	0	479	
9	0	0	0	0	479	
10	0	0	0	0	482	
11	0	0	0	0	479	
12	0	0	0	0	476	
13	0	0	0	0	477	
14	0	0	0	0	474	
15	0	0	0	0	472	
0	0	0	0	0	476	
1	0	0	0	0	483	
2	0	0	0	0	488	
3	0	0	0	0	496	
4	0	0	0	0	503	
5	0	0	0	0	504	
6	0	0	0	0	504	
7	0	0	0	0	502	
8	0	0	0	0	496	
9	0	0	0	0	494	
10	0	0	0	0	491	
11	0	0	0	0	489	
12	0	0	0	0	483	
13	0	0	0	0	480	
14	0	0	0	0	479	
15	0	0	0	0	481	
0	0	0	0	0	484	
1	0	0	0	0	488	
2	0	0	0	0	491	
3	0	0	0	0	496	
4	0	0	0	0	498	
5	0	0	0	0	500	
6	0	0	0	0	499	
7	0	0	0	0	497	
8	0	0	0	0	492	
9	0	0	0	0	487	
10	0	0	0	0	484	
11	0	0	0	0	486	
12	0	0	0	0	483	
13	0	0	0	0	490	
14	0	0	0	0	499	
15	0	0	0	0	503	
0	0	0	0	0	504	
1	0	0	0	0	501	
2	0	0	0	0	493	
3	0	0	0	0	493	
4	0	0	0	0	499	
5	0	0	0	0	509	
6	0	0	0	0	514	
7	0	0	0	0	520	
8	0	0	0	0	524	
9	0	0	0	0	527	
10	0	0	0	0	530	
11	0	0	0	0	532	
12	0	0	0	0	527	
13	0	0	0	0	515	
14	0	0	0	0	511	
15	0	0	0	0	516	
0	0	0	0	0	522	
1	0	0	0	0	524	
2	0	0	0	0	524	
3	0	0	0	0	519	
4	0	0	0	0	507	
5	0	0	0	0	493	
6	0	0	0	0	482	
7	0	0	0	0	473	
8	0	0	0	0	469	
9	0	0	0	0	470	
10	0	0	0	0	476	
11	0	0	0	0	480	
12	0	0	0	0	483	
13	0	0	0	0	483	
14	0	0	0	0	487	
15	0	0	0	0	493	
0	0	0	0	0	493	
1	0	0	0	0	487	
2	0	0	0	0	483	
3	0	0	0	0	483	
4	0	0	0	0	484	
5	0	0	0	0	493	
6	0	0	0	0	501	
7	0	0	0	0	508	
8	0	0	0	0	512	
9	0	0	0	0	516	
10	0	0	0	0	524	
11	0	0	0	0	530	
12	0	0	0	0	523	
13	0	0	0	0	512	
14	0	0	0	0	504	
15	0	0	0	0	500	
0	0	0	0	0	503	
1	0	0	0	0	509	
2	0	0	0	0	511	
3	0	0	0	0	512	
4	0	0	0	0	517	
5	0	0	0	0	520	
6	0	0	0	0	521	
7	0	0	0	0	517	
8	0	0	0	0	506	
9	0	0	0	0	496	
10	0	0	0	0	495	
11	0	0	0	0	497	
12	0	0	0	0	501	
13	0	0	0	0	499	
14	0	0	0	0	490	
15	0	0	0	0	485	
0	0	0	0	0	483	
1	0	0	0	0	487	
2	0	0	0	0	484	
3	0	0	0	0	485	
4	0	0	0	0	494	
5	0	0	0	0	503	
6	0	0	0	0	507	
7	0	0	0	0	505	
8	0	0	0	0	500	
9	0	0	0	0	503	
10	0	0	0	0	511	
11	0	0	0	0	514	
12	0	0	0	0	520	
13	0	0	0	0	527	
14	0	0	0	0	522	
15	0	0	0	0	517	
0	0	0	0	0	523	
1	0	0	0	0	528	
2	0	0	0	0	528	
3	0	0	0	0	520	
4	0	0	0	0	518	
5	0	0	0	0	521	
6	0	0	0	0	521	
7	0	0	0	0	520	
8	0	0	0	0	518	
9	0	0	0	0	514	
10	0	0	0	0	511	
11	0	0	0	0	503	
12	0	0	0	0	497	
13	0	0	0	0	497	
14	0	0	0	0	501	
15	0	0	0	0	500	
0	0	0	0	0	496	
1	0	0	0	0	491	
2	0	0	0	0	487	
3	0	0	0	0	493	
4	0	0	0	0	498	
5	0	0	0	0	499	
6	0	0	0	0	498	
7	0	0	0	0	495	
8	0	0	0	0	495	
9	0	0	0	0	501	
10	0	0	0	0	508	
11	0	0	0	0	511	
12	0	0	0	0	519	
13	0	0	0	0	530	
14	0	0	0	0	536	
15	0	0	0	0	539	
0	0	0	0	0	538	
1	0	0	0	0	540	
2	0	0	0	0	543	
3	0	0	0	0	542	
4	0	0	0	0	537	
5	0	0	0	0	532	
6	0	0	0	0	529	
7	0	0	0	0	524	
8	0	0	0	0	513	
9	0	0	0	0	504	
10	0	0	0	0	496	
11	0	0	0	0	496	
12	0	0	0	0	499	
13	0	0	0	0	504	
14	0	0	0	0	505	
15	0	0	0	0	505	
0	0	0	0	0	505	
1	0	0	0	0	502	
2	0	0	0	0	498	
3	0	0	0	0	496	
4	0	0	0	0	499	
5	0	0	0	0	500	
6	0	0	0	0	497	
7	0	0	0	0	493	
8	0	0	0	0	491	
9	0	0	0	0	495	
10	0	0	0	0	498	
11	0	0	0	0	499	
12	0	0	0	0	502	
13	0	0	0	0	502	
14	0	0	0	0	502	
15	0	0	0	0	506	
0	0	0	0	0	510	
1	0	0	0	0	508	
2	0	0	0	0	511	
3	0	0	0	0	515	
4	0	0	0	0	519	
5	0	0	0	0	519	
6	0	0	0	0	513	
7	0	0	0	0	504	
8	0	0	0	0	499	
9	0	0	0	0	498	
10	0	0	0	0	497	
11	0	0	0	0	497	
12	0	0	0	0	495	
13	0	0	0	0	494	
14	0	0	0	0	493	
15	0	0	0	0	495	
0	0	0	0	0	502	
1	0	0	0	0	507	
2	0	0	0	0	511	
3	0	0	0	0	512	
4	0	0	0	0	511	
5	0	0	0	0	512	
6	0	0	0	0	510	
7	0	0	0	0	500	
8	0	0	0	0	488	
9	0	0	0	0	485	
10	0	0	0	0	487	
11	0	0	0	0	487	
12	0	0	0	0	486	
13	0	0	0	0	488	
14	0	0	0	0	494	
15	0	0	0	0	500	
0	0	0	0	0	503	
1	0	0	0	0	499	
2	0	0	0	0	497	
3	0	0	0	0	496	
4	0	0	0	0	491	
5	0	0	0	0	484	
6	0	0	0	0	478	
7	0	0	0	0	468	
8	0	0	0	0	460	
9	0	0	0	0	464	
10	0	0	0	0	468	
11	0	0	0	0	468	
12	0	0	0	0	468	
13	0	0	0	0	471	
14	0	0	0	0	471	
15	0	0	0	0	472	
0	0	0	0	0	472	
1	0	0	0	0	473	
2	0	0	0	0	480	
3	0	0	0	0	489	
4	0	0	0	0	504	
5	0	0	0	0	520	
6	0	0	0	0	535	
7	0	0	0	0	553	
8	0	0	0	0	576	
9	0	0	0	0	591	
10	0	0	0	0	603	
11	0	0	0	0	619	
12	0	0	0	0	633	
13	0	0	0	0	652	
14	0	0	0	0	678	
15	0	0	0	0	703	
0	0	0	0	0	723	
1	0	0	0	0	743	
2	0	0	0	0	767	
3	0	0	0	0	792	
4	0	0	0	0	810	
5	0	0	0	0	824	
6	0	0	0	0	835	
7	0	0	0	0	840	
8	0	0	0	0	839	
9	0	0	0	0	832	
10	0	0	0	0	812	
11	0	0	0	0	791	
12	0	0	0	0	772	
13	0	0	0	0	749	
14	0	0	0	0	727	
15	0	0	0	0	697	
0	0	0	0	0	664	
1	0	0	0	0	642	
2	0	0	0	0	622	
3	0	0	0	0	593	
4	0	0	0	0	559	
5	0	0	0	0	529	
6	0	0	0	0	499	
7	0	0	0	0	471	
8	0	0	0	0	450	
9	0	0	0	0	433	
10	0	0	0	0	419	
11	0	0	0	0	412	
12	0	0	0	0	412	
13	0	0	0	0	412	
14	0	0	0	0	412	
15	0	0	0	0	415	
0	0	0	0	0	417	
1	0	0	0	0	415	
2	0	0	0	0	419	
3	0	0	0	0	424	
4	0	0	0	0	426	
5	0	0	0	0	428	
6	0	0	0	0	429	
7	0	0	0	0	430	
8	0	0	0	0	425	
9	0	0	0	0	412	
10	0	0	0	0	405	
11	0	0	0	0	405	
12	0	0	0	0	403	
13	0	0	0	0	405	
14	0	0	0	0	409	
15	0	0	0	0	409	
0	0	0	0	0	408	
1	0	0	0	0	415	
2	0	0	0	0	416	
3	0	0	0	0	412	
4	0	0	0	0	413	
5	0	0	0	0	426	
6	0	0	0	0	446	
7	0	0	0	0	456	
8	0	0	0	0	459	
9	0	0	0	0	462	
10	0	0	0	0	462	
11	0	0	0	0	467	
12	0	0	0	0	474	
13	0	0	0	0	480	
14	0	0	0	0	487	
15	0	0	0	0	489	
0	0	0	0	0	487	
1	0	0	0	0	483	
2	0	0	0	0	483	
3	0	0	0	0	488	
4	0	0	0	0	491	
5	0	0	0	0	493	
6	0	0	0	0	495	
7	0	0	0	0	489	
8	0	0	0	0	483	
9	0	0	0	0	480	
10	0	0	0	0	475	
11	0	0	0	0	469	
12	0	0	0	0	468	
13	0	0	0	0	471	
14	0	0	0	0	472	
15	0	0	0	0	470	
0	0	0	0	0	468	
1	0	0	0	0	468	
2	0	0	0	0	468	
3	0	0	0	0	469	
4	0	0	0	0	471	
5	0	0	0	0	472	
6	0	0	0	0	473	
7	0	0	0	0	475	
8	0	0	0	0	483	
9	0	0	0	0	492	
10	0	0	0	0	492	
11	0	0	0	0	488	
12	0	0	0	0	484	
13	0	0	0	0	485	
14	0	0	0	0	488	
15	0	0	0	0	496	
0	0	0	0	0	507	
1	0	0	0	0	509	
2	0	0	0	0	507	
3	0	0	0	0	499	
4	0	0	0	0	495	
5	0	0	0	0	497	
6	0	0	0	0	499	
7	0	0	0	0	500	
8	0	0	0	0	505	
9	0	0	0	0	503	
10	0	0	0	0	499	
11	0	0	0	0	499	
12	0	0	0	0	503	
13	0	0	0	0	499	
14	0	0	0	0	495	
15	0	0	0	0	493	
0	0	0	0	0	498	
1	0	0	0	0	505	
2	0	0	0	0	511	
3	0	0	0	0	512	
4	0	0	0	0	510	
5	0	0	0	0	504	
6	0	0	0	0	497	
7	0	0	0	0	489	
8	0	0	0	0	484	
9	0	0	0	0	482	
10	0	0	0	0	482	
11	0	0	0	0	483	
12	0	0	0	0	485	
13	0	0	0	0	487	
14	0	0	0	0	490	
15	0	0	0	0	492	
0	0	0	0	0	494	
1	0	0	0	0	497	
2	0	0	0	0	498	
3	0	0	0	0	499	
4	0	0	0	0	507	
5	0	0	0	0	516	
6	0	0	0	0	523	
7	0	0	0	0	529	
8	0	0	0	0	531	
9	0	0	0	0	530	
10	0	0	0	0	526	
11	0	0	0	0	523	
12	0	0	0	0	521	
13	0	0	0	0	521	
14	0	0	0	0	521	
15	0	0	0	0	514	
0	0	0	0	0	500	
1	0	0	0	0	494	
2	0	0	0	0	497	
3	0	0	0	0	506	
4	0	0	0	0	516	
5	0	0	0	0	526	
6	0	0	0	0	537	
7	0	0	0	0	540	
8	0	0	0	0	538	
9	0	0	0	0	537	
10	0	0	0	0	529	
11	0	0	0	0	522	
12	0	0	0	0	519	
13	0	0	0	0	519	
14	0	0	0	0	525	
15	0	0	0	0	531	
0	0	0	0	0	534	
1	0	0	0	0	534	
2	0	0	0	0	532	
3	0	0	0	0	529	
4	0	0	0	0	525	
5	0	0	0	0	521	
6	0	0	0	0	518	
7	0	0	0	0	518	
8	0	0	0	0	519	
9	0	0	0	0	524	
10	0	0	0	0	530	
11	0	0	0	0	535	
12	0	0	0	0	544	
13	0	0	0	0	546	
14	0	0	0	0	540	
15	0	0	0	0	530	
0	0	0	0	0	526	
1	0	0	0	0	528	
2	0	0	0	0	536	
3	0	0	0	0	539	
4	0	0	0	0	543	
5	0	0	0	0	548	
6	0	0	0	0	545	
7	0	0	0	0	542	
8	0	0	0	0	542	
9	0	0	0	0	541	
10	0	0	0	0	540	
11	0	0	0	0	542	
12	0	0	0	0	548	
13	0	0	0	0	549	
14	0	0	0	0	545	
15	0	0	0	0	542	
0	0	0	0	0	542	
1	0	0	0	0	543	
2	0	0	0	0	543	
3	0	0	0	0	544	
4	0	0	0	0	547	
5	0	0	0	0	551	
6	0	0	0	0	551	
7	0	0	0	0	547	
8	0	0	0	0	544	
9	0	0	0	0	540	
10	0	0	0	0	540	
11	0	0	0	0	536	
12	0	0	0	0	528	
13	0	0	0	0	521	
14	0	0	0	0	523	
15	0	0	0	0	529	
0	0	0	0	0	540	
1	0	0	0	0	554	
2	0	0	0	0	569	
3	0	0	0	0	571	
4	0	0	0	0	565	
5	0	0	0	0	557	
6	0	0	0	0	550	
7	0	0	0	0	544	
8	0	0	0	0	542	
9	0	0	0	0	540	
10	0	0	0	0	535	
11	0	0	0	0	529	
12	0	0	0	0	523	
13	0	0	0	0	521	
14	0	0	0	0	521	
15	0	0	0	0	519	
0	0	0	0	0	519	
1	0	0	0	0	512	
2	0	0	0	0	501	
3	0	0	0	0	496	
4	0	0	0	0	492	
5	0	0	0	0	489	
6	0	0	0	0	488	
7	0	0	0	0	481	
8	0	0	0	0	476	
9	0	0	0	0	481	
10	0	0	0	0	491	
11	0	0	0	0	502	
12	0	0	0	0	512	
13	0	0	0	0	516	
14	0	0	0	0	516	
15	0	0	0	0	519	
0	0	0	0	0	523	
1	0	0	0	0	521	
2	0	0	0	0	512	
3	0	0	0	0	503	
4	0	0	0	0	492	
5	0	0	0	0	486	
6	0	0	0	0	485	
7	0	0	0	0	484	
8	0	0	0	0	480	
9	0	0	0	0	480	
10	0	0	0	0	481	
11	0	0	0	0	483	
12	0	0	0	0	484	
13	0	0	0	0	488	
14	0	0	0	0	490	
15	0	0	0	0	491	
0	0	0	0	0	490	
1	0	0	0	0	485	
2	0	0	0	0	479	
3	0	0	0	0	477	
4	0	0	0	0	475	
5	0	0	0	0	476	
6	0	0	0	0	475	
7	0	0	0	0	475	
8	0	0	0	0	476	
9	0	0	0	0	475	
10	0	0	0	0	477	
11	0	0	0	0	479	
12	0	0	0	0	480	
13	0	0	0	0	478	
14	0	0	0	0	481	
15	0	0	0	0	486	
0	0	0	0	0	487	
1	0	0	0	0	491	
2	0	0	0	0	498	
3	0	0	0	0	500	
4	0	0	0	0	493	
5	0	0	0	0	483	
6	0	0	0	0	475	
7	0	0	0	0	468	
8	0	0	0	0	466	
9	0	0	0	0	464	
10	0	0	0	0	459	
11	0	0	0	0	455	
12	0	0	0	0	452	
13	0	0	0	0	452	
14	0	0	0	0	448	
15	0	0	0	0	443	
0	0	0	0	0	450	
1	0	0	0	0	460	
2	0	0	0	0	465	
3	0	0	0	0	465	
4	0	0	0	0	468	
5	0	0	0	0	467	
6	0	0	0	0	464	
7	0	0	0	0	467	
8	0	0	0	0	475	
9	0	0	0	0	479	
10	0	0	0	0	486	
11	0	0	0	0	493	
12	0	0	0	0	497	
13	0	0	0	0	501	
14	0	0	0	0	495	
15	0	0	0	0	480	
0	0	0	0	0	468	
1	0	0	0	0	464	
2	0	0	0	0	461	
3	0	0	0	0	460	
4	0	0	0	0	462	
5	0	0	0	0	466	
6	0	0	0	0	471	
7	0	0	0	0	476	
8	0	0	0	0	484	
9	0	0	0	0	487	
10	0	0	0	0	490	
11	0	0	0	0	487	
12	0	0	0	0	480	
13	0	0	0	0	475	
14	0	0	0	0	471	
15	0	0	0	0	473	
0	0	0	0	0	472	
1	0	0	0	0	472	
2	0	0	0	0	471	
3	0	0	0	0	472	
4	0	0	0	0	473	
5	0	0	0	0	479	
6	0	0	0	0	483	
7	0	0	0	0	488	
8	0	0	0	0	493	
9	0	0	0	0	501	
10	0	0	0	0	508	
11	0	0	0	0	514	
12	0	0	0	0	518	
13	0	0	0	0	522	
14	0	0	0	0	525	
15	0	0	0	0	524	
0	0	0	0	0	515	
1	0	0	0	0	503	
2	0	0	0	0	495	
3	0	0	0	0	494	
4	0	0	0	0	494	
5	0	0	0	0	492	
6	0	0	0	0	491	
7	0	0	0	0	492	
8	0	0	0	0	492	
9	0	0	0	0	490	
10	0	0	0	0	491	
11	0	0	0	0	495	
12	0	0	0	0	499	
13	0	0	0	0	504	
14	0	0	0	0	506	
15	0	0	0	0	503	
0	0	0	0	0	496	
1	0	0	0	0	488	
2	0	0	0	0	482	
3	0	0	0	0	482	
4	0	0	0	0	492	
5	0	0	0	0	500	
6	0	0	0	0	505	
7	0	0	0	0	503	
8	0	0	0	0	505	
9	0	0	0	0	515	
10	0	0	0	0	517	
11	0	0	0	0	511	
12	0	0	0	0	505	
13	0	0	0	0	502	
14	0	0	0	0	498	
15	0	0	0	0	496	
0	0	0	0	0	492	
1	0	0	0	0	486	
2	0	0	0	0	481	
3	0	0	0	0	480	
4	0	0	0	0	480	
5	0	0	0	0	478	
6	0	0	0	0	477	
7	0	0	0	0	480	
8	0	0	0	0	485	
9	0	0	0	0	487	
10	0	0	0	0	489	
11	0	0	0	0	492	
12	0	0	0	0	500	
13	0	0	0	0	507	
14	0	0	0	0	509	
15	0	0	0	0	508	
0	0	0	0	0	504	
1	0	0	0	0	500	
2	0	0	0	0	493	
3	0	0	0	0	487	
4	0	0	0	0	488	
5	0	0	0	0	486	
6	0	0	0	0	481	
7	0	0	0	0	479	
8	0	0	0	0	487	
9	0	0	0	0	496	
10	0	0	0	0	498	
11	0	0	0	0	493	
12	0	0	0	0	487	
13	0	0	0	0	484	
14	0	0	0	0	483	
15	0	0	0	0	488	
0	0	0	0	0	497	
1	0	0	0	0	503	
2	0	0	0	0	505	
3	0	0	0	0	508	
4	0	0	0	0	505	
5	0	0	0	0	504	
6	0	0	0	0	504	
7	0	0	0	0	506	
8	0	0	0	0	503	
9	0	0	0	0	496	
10	0	0	0	0	493	
11	0	0	0	0	496	
12	0	0	0	0	499	
13	0	0	0	0	502	
14	0	0	0	0	506	
15	0	0	0	0	511	
0	0	0	0	0	512	
1	0	0	0	0	506	
2	0	0	0	0	500	
3	0	0	0	0	502	
4	0	0	0	0	501	
5	0	0	0	0	500	
6	0	0	0	0	501	
7	0	0	0	0	500	
8	0	0	0	0	500	
9	0	0	0	0	507	
10	0	0	0	0	511	
11	0	0	0	0	512	
12	0	0	0	0	515	
13	0	0	0	0	512	
14	0	0	0	0	504	
15	0	0	0	0	501	
0	0	0	0	0	500	
1	0	0	0	0	498	
2	0	0	0	0	496	
3	0	0	0	0	500	
4	0	0	0	0	512	
5	0	0	0	0	515	
6	0	0	0	0	516	
7	0	0	0	0	521	
8	0	0	0	0	529	
9	0	0	0	0	539	
10	0	0	0	0	548	
11	0	0	0	0	551	
12	0	0	0	0	553	
13	0	0	0	0	551	
14	0	0	0	0	545	
15	0	0	0	0	534	
0	0	0	0	0	522	
1	0	0	0	0	514	
2	0	0	0	0	510	
3	0	0	0	0	502	
4	0	0	0	0	493	
5	0	0	0	0	488	
6	0	0	0	0	487	
7	0	0	0	0	492	
8	0	0	0	0	502	
9	0	0	0	0	512	
10	0	0	0	0	515	
11	0	0	0	0	520	
12	0	0	0	0	527	
13	0	0	0	0	527	
14	0	0	0	0	520	
15	0	0	0	0	515	
0	0	0	0	0	515	
1	0	0	0	0	508	
2	0	0	0	0	500	
3	0	0	0	0	494	
4	0	0	0	0	488	
5	0	0	0	0	485	
6	0	0	0	0	486	
7	0	0	0	0	492	
8	0	0	0	0	501	
9	0	0	0	0	508	
10	0	0	0	0	511	
11	0	0	0	0	510	
12	0	0	0	0	511	
13	0	0	0	0	516	
14	0	0	0	0	516	
15	0	0	0	0	510	
0	0	0	0	0	500	
1	0	0	0	0	494	
2	0	0	0	0	496	
3	0	0	0	0	495	
4	0	0	0	0	497	
5	0	0	0	0	501	
6	0	0	0	0	505	
7	0	0	0	0	505	
8	0	0	0	0	501	
9	0	0	0	0	496	
10	0	0	0	0	488	
11	0	0	0	0	479	
12	0	0	0	0	473	
13	0	0	0	0	468	
14	0	0	0	0	467	
15	0	0	0	0	469	
0	0	0	0	0	470	
1	0	0	0	0	476	
2	0	0	0	0	482	
3	0	0	0	0	494	
4	0	0	0	0	504	
5	0	0	0	0	512	
6	0	0	0	0	512	
7	0	0	0	0	506	
8	0	0	0	0	497	
9	0	0	0	0	492	
10	0	0	0	0	492	
11	0	0	0	0	494	
12	0	0	0	0	498	
13	0	0	0	0	500	
14	0	0	0	0	503	
15	0	0	0	0	504	
0	0	0	0	0	506	
1	0	0	0	0	508	
2	0	0	0	0	510	
3	0	0	0	0	512	
4	0	0	0	0	511	
5	0	0	0	0	507	
6	0	0	0	0	510	
7	0	0	0	0	513	
8	0	0	0	0	502	
9	0	0	0	0	488	
10	0	0	0	0	476	
11	0	0	0	0	464	
12	0	0	0	0	455	
13	0	0	0	0	452	
14	0	0	0	0	454	
15	0	0	0	0	459	
0	0	0	0	0	465	
1	0	0	0	0	472	
2	0	0	0	0	478	
3	0	0	0	0	487	
4	0	0	0	0	492	
5	0	0	0	0	496	
6	0	0	0	0	499	
7	0	0	0	0	500	
8	0	0	0	0	498	
9	0	0	0	0	494	
10	0	0	0	0	492	
11	0	0	0	0	502	
12	0	0	0	0	526	
13	0	0	0	0	550	
14	0	0	0	0	572	
15	0	0	0	0	590	
0	0	0	0	0	596	
1	0	0	0	0	601	
2	0	0	0	0	613	
3	0	0	0	0	632	
4	0	0	0	0	657	
5	0	0	0	0	679	
6	0	0	0	0	699	
7	0	0	0	0	719	
8	0	0	0	0	738	
9	0	0	0	0	754	
10	0	0	0	0	766	
11	0	0	0	0	777	
12	0	0	0	0	784	
13	0	0	0	0	795	
14	0	0	0	0	801	
15	0	0	0	0	797	
0	0	0	0	0	785	
1	0	0	0	0	770	
2	0	0	0	0	750	
3	0	0	0	0	729	
4	0	0	0	0	704	
5	0	0	0	0	679	
6	0	0	0	0	655	
7	0	0	0	0	635	
8	0	0	0	0	615	
9	0	0	0	0	593	
10	0	0	0	0	568	
11	0	0	0	0	542	
12	0	0	0	0	516	
13	0	0	0	0	487	
14	0	0	0	0	457	
15	0	0	0	0	429	
0	0	0	0	0	404	
1	0	0	0	0	387	
2	0	0	0	0	378	
3	0	0	0	0	377	
4	0	0	0	0	376	
5	0	0	0	0	373	
6	0	0	0	0	379	
7	0	0	0	0	391	
8	0	0	0	0	404	
9	0	0	0	0	413	
10	0	0	0	0	419	
11	0	0	0	0	430	
12	0	0	0	0	435	
13	0	0	0	0	430	
14	0	0	0	0	427	
15	0	0	0	0	427	
0	0	0	0	0	420	
1	0	0	0	0	410	
2	0	0	0	0	406	
3	0	0	0	0	412	
4	0	0	0	0	422	
5	0	0	0	0	429	
6	0	0	0	0	439	
7	0	0	0	0	444	
8	0	0	0	0	450	
9	0	0	0	0	456	
10	0	0	0	0	456	
11	0	0	0	0	455	
12	0	0	0	0	455	
13	0	0	0	0	454	
14	0	0	0	0	451	
15	0	0	0	0	452	
0	0	0	0	0	461	
1	0	0	0	0	468	
2	0	0	0	0	471	
3	0	0	0	0	471	
4	0	0	0	0	470	
5	0	0	0	0	467	
6	0	0	0	0	466	
7	0	0	0	0	462	
8	0	0	0	0	456	
9	0	0	0	0	454	
10	0	0	0	0	456	
11	0	0	0	0	455	
12	0	0	0	0	455	
13	0	0	0	0	455	
14	0	0	0	0	452	
15	0	0	0	0	452	
0	0	0	0	0	457	
1	0	0	0	0	460	
2	0	0	0	0	462	
3	0	0	0	0	467	
4	0	0	0	0	479	
5	0	0	0	0	487	
6	0	0	0	0	487	
7	0	0	0	0	480	
8	0	0	0	0	477	
9	0	0	0	0	479	
10	0	0	0	0	475	
11	0	0	0	0	471	
12	0	0	0	0	472	
13	0	0	0	0	484	
14	0	0	0	0	498	
15	0	0	0	0	506	
0	0	0	0	0	508	
1	0	0	0	0	508	
2	0	0	0	0	506	
3	0	0	0	0	509	
4	0	0	0	0	516	
5	0	0	0	0	519	
6	0	0	0	0	516	
7	0	0	0	0	508	
8	0	0	0	0	502	
9	0	0	0	0	499	
10	0	0	0	0	497	
11	0	0	0	0	491	
12	0	0	0	0	490	
13	0	0	0	0	489	
14	0	0	0	0	486	
15	0	0	0	0	488	
0	0	0	0	0	494	
1	0	0	0	0	499	
2	0	0	0	0	504	
3	0	0	0	0	509	
4	0	0	0	0	513	
5	0	0	0	0	515	
6	0	0	0	0	517	
7	0	0	0	0	509	
8	0	0	0	0	498	
9	0	0	0	0	489	
10	0	0	0	0	481	
11	0	0	0	0	481	
12	0	0	0	0	483	
13	0	0	0	0	485	
14	0	0	0	0	490	
15	0	0	0	0	495	
0	0	0	0	0	499	
1	0	0	0	0	505	
2	0	0	0	0	510	
3	0	0	0	0	512	
4	0	0	0	0	512	
5	0	0	0	0	512	
6	0	0	0	0	511	
7	0	0	0	0	512	
8	0	0	0	0	515	
9	0	0	0	0	516	
10	0	0	0	0	519	
11	0	0	0	0	519	
12	0	0	0	0	520	
13	0	0	0	0	517	
14	0	0	0	0	508	
15	0	0	0	0	500	
0	0	0	0	0	495	
1	0	0	0	0	496	
2	0	0	0	0	498	
3	0	0	0	0	504	
4	0	0	0	0	510	
5	0	0	0	0	516	
6	0	0	0	0	519	
7	0	0	0	0	520	
8	0	0	0	0	516	
9	0	0	0	0	511	
10	0	0	0	0	504	
11	0	0	0	0	504	
12	0	0	0	0	507	
13	0	0	0	0	516	
14	0	0	0	0	526	
15	0	0	0	0	534	
0	0	0	0	0	536	
1	0	0	0	0	531	
2	0	0	0	0	524	
3	0	0	0	0	518	
4	0	0	0	0	515	
5	0	0	0	0	516	
6	0	0	0	0	518	
7	0	0	0	0	520	
8	0	0	0	0	519	
9	0	0	0	0	515	
10	0	0	0	0	516	
11	0	0	0	0	519	
12	0	0	0	0	519	
13	0	0	0	0	526	
14	0	0	0	0	539	
15	0	0	0	0	547	
0	0	0	0	0	545	
1	0	0	0	0	548	
2	0	0	0	0	554	
3	0	0	0	0	551	
4	0	0	0	0	543	
5	0	0	0	0	538	
6	0	0	0	0	539	
7	0	0	0	0	541	
8	0	0	0	0	550	
9	0	0	0	0	558	
10	0	0	0	0	560	
11	0	0	0	0	563	
12	0	0	0	0	563	
13	0	0	0	0	563	
14	0	0	0	0	566	
15	0	0	0	0	568	
0	0	0	0	0	568	
1	0	0	0	0	566	
2	0	0	0	0	571	
3	0	0	0	0	577	
4	0	0	0	0	575	
5	0	0	0	0	568	
6	0	0	0	0	561	
7	0	0	0	0	552	
8	0	0	0	0	540	
9	0	0	0	0	531	
10	0	0	0	0	527	
11	0	0	0	0	525	
12	0	0	0	0	527	
13	0	0	0	0	528	
14	0	0	0	0	530	
15	0	0	0	0	533	
0	0	0	0	0	538	
1	0	0	0	0	538	
2	0	0	0	0	536	
3	0	0	0	0	535	
4	0	0	0	0	535	
5	0	0	0	0	532	
6	0	0	0	0	527	
7	0	0	0	0	526	
8	0	0	0	0	531	
9	0	0	0	0	540	
10	0	0	0	0	547	
11	0	0	0	0	553	
12	0	0	0	0	559	
13	0	0	0	0	560	
14	0	0	0	0	560	
15	0	0	0	0	556	
0	0	0	0	0	545	
1	0	0	0	0	537	
2	0	0	0	0	530	
3	0	0	0	0	521	
4	0	0	0	0	512	
5	0	0	0	0	508	
6	0	0	0	0	507	
7	0	0	0	0	503	
8	0	0	0	0	498	
9	0	0	0	0	496	
10	0	0	0	0	496	
11	0	0	0	0	498	
12	0	0	0	0	500	
13	0	0	0	0	503	
14	0	0	0	0	503	
15	0	0	0	0	494	
0	0	0	0	0	487	
1	0	0	0	0	488	
2	0	0	0	0	489	
3	0	0	0	0	493	
4	0	0	0	0	499	
5	0	0	0	0	505	
6	0	0	0	0	507	
7	0	0	0	0	503	
8	0	0	0	0	496	
9	0	0	0	0	492	
10	0	0	0	0	491	
11	0	0	0	0	492	
12	0	0	0	0	493	
13	0	0	0	0	491	
14	0	0	0	0	487	
15	0	0	0	0	483	
0	0	0	0	0	480	
1	0	0	0	0	482	
2	0	0	0	0	482	
3	0	0	0	0	482	
4	0	0	0	0	483	
5	0	0	0	0	483	
6	0	0	0	0	481	
7	0	0	0	0	483	
8	0	0	0	0	484	
9	0	0	0	0	484	
10	0	0	0	0	486	
11	0	0	0	0	481	
12	0	0	0	0	473	
13	0	0	0	0	471	
14	0	0	0	0	470	
15	0	0	0	0	467	
0	0	0	0	0	462	
1	0	0	0	0	458	
2	0	0	0	0	460	
3	0	0	0	0	463	
4	0	0	0	0	463	
5	0	0	0	0	460	
6	0	0	0	0	461	
7	0	0	0	0	464	
8	0	0	0	0	464	
9	0	0	0	0	463	
10	0	0	0	0	469	
11	0	0	0	0	476	
12	0	0	0	0	474	
13	0	0	0	0	469	
14	0	0	0	0	467	
15	0	0	0	0	464	
0	0	0	0	0	467	
1	0	0	0	0	470	
2	0	0	0	0	470	
3	0	0	0	0	467	
4	0	0	0	0	463	
5	0	0	0	0	461	
6	0	0	0	0	464	
7	0	0	0	0	470	
8	0	0	0	0	474	
9	0	0	0	0	473	
10	0	0	0	0	474	
11	0	0	0	0	475	
12	0	0	0	0	472	
13	0	0	0	0	466	
14	0	0	0	0	461	
15	0	0	0	0	464	
0	0	0	0	0	475	
1	0	0	0	0	484	
2	0	0	0	0	488	
3	0	0	0	0	483	
4	0	0	0	0	476	
5	0	0	0	0	476	
6	0	0	0	0	475	
7	0	0	0	0	467	
8	0	0	0	0	462	
9	0	0	0	0	463	
10	0	0	0	0	469	
11	0	0	0	0	479	
12	0	0	0	0	488	
13	0	0	0	0	496	
14	0	0	0	0	498	
15	0	0	0	0	496	
0	0	0	0	0	499	
1	0	0	0	0	502	
2	0	0	0	0	505	
3	0	0	0	0	500	
4	0	0	0	0	496	
5	0	0	0	0	497	
6	0	0	0	0	501	
7	0	0	0	0	500	
8	0	0	0	0	492	
9	0	0	0	0	487	
10	0	0	0	0	480	
11	0	0	0	0	471	
12	0	0	0	0	464	
13	0	0	0	0	464	
14	0	0	0	0	472	
15	0	0	0	0	483	
0	0	0	0	0	494	
1	0	0	0	0	500	
2	0	0	0	0	503	
3	0	0	0	0	508	
4	0	0	0	0	508	
5	0	0	0	0	507	
6	0	0	0	0	507	
7	0	0	0	0	501	
8	0	0	0	0	488	
9	0	0	0	0	481	
10	0	0	0	0	478	
11	0	0	0	0	477	
12	0	0	0	0	475	
13	0	0	0	0	475	
14	0	0	0	0	478	
15	0	0	0	0	476	
0	0	0	0	0	472	
1	0	0	0	0	470	
2	0	0	0	0	470	
3	0	0	0	0	471	
4	0	0	0	0	472	
5	0	0	0	0	474	
6	0	0	0	0	474	
7	0	0	0	0	473	
8	0	0	0	0	478	
9	0	0	0	0	489	
10	0	0	0	0	498	
11	0	0	0	0	500	
12	0	0	0	0	502	
13	0	0	0	0	501	
14	0	0	0	0	498	
15	0	0	0	0	499	
0	0	0	0	0	509	
1	0	0	0	0	517	
2	0	0	0	0	519	
3	0	0	0	0	519	
4	0	0	0	0	518	
5	0	0	0	0	516	
6	0	0	0	0	511	
7	0	0	0	0	501	
8	0	0	0	0	489	
9	0	0	0	0	481	
10	0	0	0	0	480	
11	0	0	0	0	483	
12	0	0	0	0	480	
13	0	0	0	0	481	
14	0	0	0	0	479	
15	0	0	0	0	474	
0	0	0	0	0	469	
1	0	0	0	0	467	
2	0	0	0	0	471	
3	0	0	0	0	476	
4	0	0	0	0	483	
5	0	0	0	0	490	
6	0	0	0	0	494	
7	0	0	0	0	496	
8	0	0	0	0	504	
9	0	0	0	0	511	
10	0	0	0	0	508	
11	0	0	0	0	504	
12	0	0	0	0	503	
13	0	0	0	0	500	
14	0	0	0	0	504	
15	0	0	0	0	508	
0	0	0	0	0	508	
1	0	0	0	0	503	
2	0	0	0	0	500	
3	0	0	0	0	499	
4	0	0	0	0	496	
5	0	0	0	0	496	
6	0	0	0	0	497	
7	0	0	0	0	496	
8	0	0	0	0	489	
9	0	0	0	0	483	
10	0	0	0	0	478	
11	0	0	0	0	478	
12	0	0	0	0	478	
13	0	0	0	0	482	
14	0	0	0	0	487	
15	0	0	0	0	494	
0	0	0	0	0	497	
1	0	0	0	0	502	
2	0	0	0	0	511	
3	0	0	0	0	515	
4	0	0	0	0	520	
5	0	0	0	0	526	
6	0	0	0	0	531	
7	0	0	0	0	531	
8	0	0	0	0	523	
9	0	0	0	0	516	
10	0	0	0	0	516	
11	0	0	0	0	521	
12	0	0	0	0	527	
13	0	0	0	0	531	
14	0	0	0	0	532	
15	0	0	0	0	531	
0	0	0	0	0	532	
1	0	0	0	0	527	
2	0	0	0	0	512	
3	0	0	0	0	494	
4	0	0	0	0	483	
5	0	0	0	0	481	
6	0	0	0	0	480	
7	0	0	0	0	478	
8	0	0	0	0	479	
9	0	0	0	0	481	
10	0	0	0	0	482	
11	0	0	0	0	483	
12	0	0	0	0	489	
13	0	0	0	0	497	
14	0	0	0	0	499	
15	0	0	0	0	500	
0	0	0	0	0	506	
1	0	0	0	0	515	
2	0	0	0	0	524	
3	0	0	0	0	530	
4	0	0	0	0	531	
5	0	0	0	0	533	
6	0	0	0	0	534	
7	0	0	0	0	533	
8	0	0	0	0	526	
9	0	0	0	0	520	
10	0	0	0	0	518	
11	0	0	0	0	511	
12	0	0	0	0	504	
13	0	0	0	0	505	
14	0	0	0	0	512	
15	0	0	0	0	515	
0	0	0	0	0	516	
1	0	0	0	0	519	
2	0	0	0	0	514	
3	0	0	0	0	511	
4	0	0	0	0	509	
5	0	0	0	0	509	
6	0	0	0	0	509	
7	0	0	0	0	512	
8	0	0	0	0	513	
9	0	0	0	0	507	
10	0	0	0	0	502	
11	0	0	0	0	499	
12	0	0	0	0	498	
13	0	0	0	0	496	
14	0	0	0	0	495	
15	0	0	0	0	496	
0	0	0	0	0	497	
1	0	0	0	0	500	
2	0	0	0	0	496	
3	0	0	0	0	487	
4	0	0	0	0	480	
5	0	0	0	0	479	
6	0	0	0	0	489	
7	0	0	0	0	498	
8	0	0	0	0	503	
9	0	0	0	0	501	
10	0	0	0	0	503	
11	0	0	0	0	504	
12	0	0	0	0	506	
13	0	0	0	0	509	
14	0	0	0	0	506	
15	0	0	0	0	499	
0	0	0	0	0	491	
1	0	0	0	0	486	
2	0	0	0	0	488	
3	0	0	0	0	496	
4	0	0	0	0	503	
5	0	0	0	0	504	
6	0	0	0	0	505	
7	0	0	0	0	502	
8	0	0	0	0	499	
9	0	0	0	0	500	
10	0	0	0	0	492	
11	0	0	0	0	483	
12	0	0	0	0	480	
13	0	0	0	0	472	
14	0	0	0	0	459	
15	0	0	0	0	451	
0	0	0	0	0	448	
1	0	0	0	0	445	
2	0	0	0	0	446	
3	0	0	0	0	451	
4	0	0	0	0	463	
5	0	0	0	0	483	
6	0	0	0	0	500	
7	0	0	0	0	504	
8	0	0	0	0	510	
9	0	0	0	0	518	
10	0	0	0	0	519	
11	0	0	0	0	521	
12	0	0	0	0	517	
13	0	0	0	0	508	
14	0	0	0	0	496	
15	0	0	0	0	482	
0	0	0	0	0	474	
1	0	0	0	0	467	
2	0	0	0	0	462	
3	0	0	0	0	465	
4	0	0	0	0	470	
5	0	0	0	0	471	
6	0	0	0	0	475	
7	0	0	0	0	482	
8	0	0	0	0	489	
9	0	0	0	0	499	
10	0	0	0	0	512	
11	0	0	0	0	529	
12	0	0	0	0	545	
13	0	0	0	0	558	
14	0	0	0	0	575	
15	0	0	0	0	590	
0	0	0	0	0	610	
1	0	0	0	0	635	
2	0	0	0	0	654	
3	0	0	0	0	667	
4	0	0	0	0	682	
5	0	0	0	0	704	
6	0	0	0	0	731	
7	0	0	0	0	759	
8	0	0	0	0	781	
9	0	0	0	0	799	
10	0	0	0	0	813	
11	0	0	0	0	815	
12	0	0	0	0	812	
13	0	0	0	0	807	
14	0	0	0	0	796	
15	0	0	0	0	782	
0	0	0	0	0	762	
1	0	0	0	0	739	
2	0	0	0	0	712	
3	0	0	0	0	682	
4	0	0	0	0	652	
5	0	0	0	0	623	
6	0	0	0	0	599	
7	0	0	0	0	573	
8	0	0	0	0	544	
9	0	0	0	0	511	
10	0	0	0	0	481	
11	0	0	0	0	466	
12	0	0	0	0	452	
13	0	0	0	0	435	
14	0	0	0	0	420	
15	0	0	0	0	413	
0	0	0	0	0	404	
1	0	0	0	0	394	
2	0	0	0	0	393	
3	0	0	0	0	403	
4	0	0	0	0	407	
5	0	0	0	0	412	
6	0	0	0	0	413	
7	0	0	0	0	412	
8	0	0	0	0	409	
9	0	0	0	0	408	
10	0	0	0	0	411	
11	0	0	0	0	415	
12	0	0	0	0	417	
13	0	0	0	0	419	
14	0	0	0	0	419	
15	0	0	0	0	418	
0	0	0	0	0	423	
1	0	0	0	0	430	
2	0	0	0	0	433	
3	0	0	0	0	439	
4	0	0	0	0	441	
5	0	0	0	0	441	
6	0	0	0	0	436	
7	0	0	0	0	424	
8	0	0	0	0	416	
9	0	0	0	0	409	
10	0	0	0	0	409	
11	0	0	0	0	417	
12	0	0	0	0	422	
13	0	0	0	0	426	
14	0	0	0	0	432	
15	0	0	0	0	440	
0	0	0	0	0	449	
1	0	0	0	0	460	
2	0	0	0	0	469	
3	0	0	0	0	472	
4	0	0	0	0	478	
5	0	0	0	0	481	
6	0	0	0	0	484	
7	0	0	0	0	487	
8	0	0	0	0	486	
9	0	0	0	0	483	
10	0	0	0	0	486	
11	0	0	0	0	488	
12	0	0	0	0	490	
13	0	0	0	0	494	
14	0	0	0	0	494	
15	0	0	0	0	494	
0	0	0	0	0	493	
1	0	0	0	0	492	
2	0	0	0	0	486	
3	0	0	0	0	479	
4	0	0	0	0	472	
5	0	0	0	0	468	
6	0	0	0	0	468	
7	0	0	0	0	465	
8	0	0	0	0	465	
9	0	0	0	0	473	
10	0	0	0	0	479	
11	0	0	0	0	480	
12	0	0	0	0	480	
13	0	0	0	0	488	
14	0	0	0	0	499	
15	0	0	0	0	501	
0	0	0	0	0	495	
1	0	0	0	0	489	
2	0	0	0	0	482	
3	0	0	0	0	477	
4	0	0	0	0	478	
5	0	0	0	0	488	
6	0	0	0	0	498	
7	0	0	0	0	498	
8	0	0	0	0	497	
9	0	0	0	0	489	
10	0	0	0	0	483	
11	0	0	0	0	481	
12	0	0	0	0	483	
13	0	0	0	0	492	
14	0	0	0	0	498	
15	0	0	0	0	497	
0	0	0	0	0	493	
1	0	0	0	0	490	
2	0	0	0	0	489	
3	0	0	0	0	496	
4	0	0	0	0	505	
5	0	0	0	0	507	
6	0	0	0	0	507	
7	0	0	0	0	507	
8	0	0	0	0	512	
9	0	0	0	0	518	
10	0	0	0	0	515	
11	0	0	0	0	504	
12	0	0	0	0	495	
13	0	0	0	0	487	
14	0	0	0	0	480	
15	0	0	0	0	475	
0	0	0	0	0	474	
1	0	0	0	0	474	
2	0	0	0	0	471	
3	0	0	0	0	476	
4	0	0	0	0	483	
5	0	0	0	0	487	
6	0	0	0	0	487	
7	0	0	0	0	493	
8	0	0	0	0	502	
9	0	0	0	0	506	
10	0	0	0	0	512	
11	0	0	0	0	515	
12	0	0	0	0	519	
13	0	0	0	0	522	
14	0	0	0	0	522	
15	0	0	0	0	520	
0	0	0	0	0	518	
1	0	0	0	0	515	
2	0	0	0	0	515	
3	0	0	0	0	512	
4	0	0	0	0	511	
5	0	0	0	0	512	
6	0	0	0	0	509	
7	0	0	0	0	508	
8	0	0	0	0	509	
9	0	0	0	0	512	
10	0	0	0	0	516	
11	0	0	0	0	515	
12	0	0	0	0	512	
13	0	0	0	0	509	
14	0	0	0	0	511	
15	0	0	0	0	519	
0	0	0	0	0	524	
1	0	0	0	0	529	
2	0	0	0	0	535	
3	0	0	0	0	537	
4	0	0	0	0	534	
5	0	0	0	0	531	
6	0	0	0	0	532	
7	0	0	0	0	530	
8	0	0	0	0	528	
9	0	0	0	0	523	
10	0	0	0	0	514	
11	0	0	0	0	516	
12	0	0	0	0	520	
13	0	0	0	0	524	
14	0	0	0	0	528	
15	0	0	0	0	532	
0	0	0	0	0	540	
1	0	0	0	0	547	
2	0	0	0	0	554	
3	0	0	0	0	555	
4	0	0	0	0	552	
5	0	0	0	0	545	
6	0	0	0	0	537	
7	0	0	0	0	529	
8	0	0	0	0	529	
9	0	0	0	0	537	
10	0	0	0	0	544	
11	0	0	0	0	548	
12	0	0	0	0	547	
13	0	0	0	0	540	
14	0	0	0	0	532	
15	0	0	0	0	529	
0	0	0	0	0	530	
1	0	0	0	0	530	
2	0	0	0	0	534	
3	0	0	0	0	542	
4	0	0	0	0	548	
5	0	0	0	0	549	
6	0	0	0	0	548	
7	0	0	0	0	540	
8	0	0	0	0	530	
9	0	0	0	0	531	
10	0	0	0	0	538	
11	0	0	0	0	541	
12	0	0	0	0	550	
13	0	0	0	0	562	
14	0	0	0	0	564	
15	0	0	0	0	558	
0	0	0	0	0	554	
1	0	0	0	0	549	
2	0	0	0	0	543	
3	0	0	0	0	537	
4	0	0	0	0	531	
5	0	0	0	0	528	
6	0	0	0	0	531	
7	0	0	0	0	532	
8	0	0	0	0	534	
9	0	0	0	0	535	
10	0	0	0	0	531	
11	0	0	0	0	529	
12	0	0	0	0	532	
13	0	0	0	0	534	
14	0	0	0	0	529	
15	0	0	0	0	519	
0	0	0	0	0	513	
1	0	0	0	0	510	
2	0	0	0	0	505	
3	0	0	0	0	500	
4	0	0	0	0	497	
5	0	0	0	0	496	
6	0	0	0	0	501	
7	0	0	0	0	510	
8	0	0	0	0	513	
9	0	0	0	0	514	
10	0	0	0	0	511	
11	0	0	0	0	503	
12	0	0	0	0	497	
13	0	0	0	0	494	
14	0	0	0	0	492	
15	0	0	0	0	489	
0	0	0	0	0	489	
1	0	0	0	0	493	
2	0	0	0	0	498	
3	0	0	0	0	506	
4	0	0	0	0	510	
5	0	0	0	0	503	
6	0	0	0	0	493	
7	0	0	0	0	493	
8	0	0	0	0	492	
9	0	0	0	0	480	
10	0	0	0	0	468	
11	0	0	0	0	467	
12	0	0	0	0	471	
13	0	0	0	0	472	
14	0	0	0	0	470	
15	0	0	0	0	467	
0	0	0	0	0	463	
1	0	0	0	0	462	
2	0	0	0	0	461	
3	0	0	0	0	466	
4	0	0	0	0	466	
5	0	0	0	0	462	
6	0	0	0	0	460	
7	0	0	0	0	452	
8	0	0	0	0	442	
9	0	0	0	0	439	
10	0	0	0	0	440	
11	0	0	0	0	438	
12	0	0	0	0	440	
13	0	0	0	0	455	
14	0	0	0	0	470	
15	0	0	0	0	476	
0	0	0	0	0	475	
1	0	0	0	0	478	
2	0	0	0	0	476	
3	0	0	0	0	472	
4	0	0	0	0	466	
5	0	0	0	0	464	
6	0	0	0	0	465	
7	0	0	0	0	470	
8	0	0	0	0	476	
9	0	0	0	0	480	
10	0	0	0	0	475	
11	0	0	0	0	474	
12	0	0	0	0	473	
13	0	0	0	0	472	
14	0	0	0	0	467	
15	0	0	0	0	457	
0	0	0	0	0	451	
1	0	0	0	0	456	
2	0	0	0	0	463	
3	0	0	0	0	466	
4	0	0	0	0	463	
5	0	0	0	0	463	
6	0	0	0	0	464	
7	0	0	0	0	463	
8	0	0	0	0	460	
9	0	0	0	0	460	
10	0	0	0	0	459	
11	0	0	0	0	460	
12	0	0	0	0	463	
13	0	0	0	0	462	
14	0	0	0	0	460	
15	0	0	0	0	462	
0	0	0	0	0	467	
1	0	0	0	0	467	
2	0	0	0	0	466	
3	0	0	0	0	464	
4	0	0	0	0	467	
5	0	0	0	0	474	
6	0	0	0	0	479	
7	0	0	0	0	483	
8	0	0	0	0	484	
9	0	0	0	0	488	
10	0	0	0	0	492	
11	0	0	0	0	492	
12	0	0	0	0	492	
13	0	0	0	0	492	
14	0	0	0	0	492	
15	0	0	0	0	494	
0	0	0	0	0	495	
1	0	0	0	0	496	
2	0	0	0	0	496	
3	0	0	0	0	492	
4	0	0	0	0	482	
5	0	0	0	0	468	
6	0	0	0	0	458	
7	0	0	0	0	455	
8	0	0	0	0	462	
9	0	0	0	0	477	
10	0	0	0	0	484	
11	0	0	0	0	482	
12	0	0	0	0	480	
13	0	0	0	0	485	
14	0	0	0	0	486	
15	0	0	0	0	483	
0	0	0	0	0	489	
1	0	0	0	0	497	
2	0	0	0	0	507	
3	0	0	0	0	509	
4	0	0	0	0	502	
5	0	0	0	0	500	
6	0	0	0	0	502	
7	0	0	0	0	497	
8	0	0	0	0	491	
9	0	0	0	0	483	
10	0	0	0	0	475	
11	0	0	0	0	462	
12	0	0	0	0	456	
13	0	0	0	0	454	
14	0	0	0	0	462	
15	0	0	0	0	471	
0	0	0	0	0	479	
1	0	0	0	0	487	
2	0	0	0	0	497	
3	0	0	0	0	504	
4	0	0	0	0	505	
5	0	0	0	0	504	
6	0	0	0	0	508	
7	0	0	0	0	508	
8	0	0	0	0	498	
9	0	0	0	0	497	
10	0	0	0	0	505	
11	0	0	0	0	512	
12	0	0	0	0	515	
13	0	0	0	0	507	
14	0	0	0	0	492	
15	0	0	0	0	478	
0	0	0	0	0	477	
1	0	0	0	0	479	
2	0	0	0	0	471	
3	0	0	0	0	464	
4	0	0	0	0	463	
5	0	0	0	0	469	
6	0	0	0	0	472	
7	0	0	0	0	473	
8	0	0	0	0	476	
9	0	0	0	0	480	
10	0	0	0	0	484	
11	0	0	0	0	489	
12	0	0	0	0	490	
13	0	0	0	0	494	
14	0	0	0	0	497	
15	0	0	0	0	499	
0	0	0	0	0	500	
1	0	0	0	0	500	
2	0	0	0	0	504	
3	0	0	0	0	512	
4	0	0	0	0	522	
5	0	0	0	0	530	
6	0	0	0	0	537	
7	0	0	0	0	543	
8	0	0	0	0	545	
9	0	0	0	0	543	
10	0	0	0	0	536	
11	0	0	0	0	527	
12	0	0	0	0	522	
13	0	0	0	0	519	
14	0	0	0	0	515	
15	0	0	0	0	513	
0	0	0	0	0	508	
1	0	0	0	0	499	
2	0	0	0	0	487	
3	0	0	0	0	480	
4	0	0	0	0	481	
5	0	0	0	0	479	
6	0	0	0	0	479	
7	0	0	0	0	477	
8	0	0	0	0	472	
9	0	0	0	0	473	
10	0	0	0	0	477	
11	0	0	0	0	480	
12	0	0	0	0	483	
13	0	0	0	0	492	
14	0	0	0	0	499	
15	0	0	0	0	501	
0	0	0	0	0	504	
1	0	0	0	0	505	
2	0	0	0	0	501	
3	0	0	0	0	496	
4	0	0	0	0	496	
5	0	0	0	0	495	
6	0	0	0	0	496	
7	0	0	0	0	505	
8	0	0	0	0	519	
9	0	0	0	0	532	
10	0	0	0	0	540	
11	0	0	0	0	542	
12	0	0	0	0	540	
13	0	0	0	0	532	
14	0	0	0	0	521	
15	0	0	0	0	515	
0	0	0	0	0	508	
1	0	0	0	0	504	
2	0	0	0	0	500	
3	0	0	0	0	499	
4	0	0	0	0	501	
5	0	0	0	0	504	
6	0	0	0	0	508	
7	0	0	0	0	512	
8	0	0	0	0	510	
9	0	0	0	0	511	
10	0	0	0	0	519	
11	0	0	0	0	532	
12	0	0	0	0	531	
13	0	0	0	0	526	
14	0	0	0	0	534	
15	0	0	0	0	543	
0	0	0	0	0	545	
1	0	0	0	0	543	
2	0	0	0	0	542	
3	0	0	0	0	536	
4	0	0	0	0	531	
5	0	0	0	0	530	
6	0	0	0	0	530	
7	0	0	0	0	530	
8	0	0	0	0	532	
9	0	0	0	0	531	
10	0	0	0	0	528	
11	0	0	0	0	527	
12	0	0	0	0	524	
13	0	0	0	0	514	
14	0	0	0	0	498	
15	0	0	0	0	488	
0	0	0	0	0	485	
1	0	0	0	0	488	
2	0	0	0	0	488	
3	0	0	0	0	489	
4	0	0	0	0	492	
5	0	0	0	0	499	
6	0	0	0	0	509	
7	0	0	0	0	514	
8	0	0	0	0	517	
9	0	0	0	0	519	
10	0	0	0	0	519	
11	0	0	0	0	521	
12	0	0	0	0	524	
13	0	0	0	0	522	
14	0	0	0	0	518	
15	0	0	0	0	508	
0	0	0	0	0	503	
1	0	0	0	0	499	
2	0	0	0	0	489	
3	0	0	0	0	483	
4	0	0	0	0	481	
5	0	0	0	0	482	
6	0	0	0	0	480	
7	0	0	0	0	476	
8	0	0	0	0	478	
9	0	0	0	0	480	
10	0	0	0	0	484	
11	0	0	0	0	489	
12	0	0	0	0	493	
13	0	0	0	0	493	
14	0	0	0	0	492	
15	0	0	0	0	490	
0	0	0	0	0	486	
1	0	0	0	0	485	
2	0	0	0	0	495	
3	0	0	0	0	504	
4	0	0	0	0	508	
5	0	0	0	0	510	
6	0	0	0	0	511	
7	0	0	0	0	512	
8	0	0	0	0	514	
9	0	0	0	0	515	
10	0	0	0	0	515	
11	0	0	0	0	519	
12	0	0	0	0	520	
13	0	0	0	0	522	
14	0	0	0	0	524	
15	0	0	0	0	523	
0	0	0	0	0	521	
1	0	0	0	0	519	
2	0	0	0	0	517	
3	0	0	0	0	511	
4	0	0	0	0	499	
5	0	0	0	0	481	
6	0	0	0	0	467	
7	0	0	0	0	460	
8	0	0	0	0	456	
9	0	0	0	0	459	
10	0	0	0	0	467	
11	0	0	0	0	476	
12	0	0	0	0	483	
13	0	0	0	0	492	
14	0	0	0	0	492	
15	0	0	0	0	494	
0	0	0	0	0	497	
1	0	0	0	0	503	
2	0	0	0	0	512	
3	0	0	0	0	525	
4	0	0	0	0	543	
5	0	0	0	0	559	
6	0	0	0	0	574	
7	0	0	0	0	590	
8	0	0	0	0	603	
9	0	0	0	0	612	
10	0	0	0	0	624	
11	0	0	0	0	635	
12	0	0	0	0	642	
13	0	0	0	0	655	
14	0	0	0	0	668	
15	0	0	0	0	686	
0	0	0	0	0	708	
1	0	0	0	0	729	
2	0	0	0	0	750	
3	0	0	0	0	771	
4	0	0	0	0	792	
5	0	0	0	0	811	
6	0	0	0	0	817	
7	0	0	0	0	812	
8	0	0	0	0	793	
9	0	0	0	0	772	
10	0	0	0	0	756	
11	0	0	0	0	742	
12	0	0	0	0	725	
13	0	0	0	0	700	
14	0	0	0	0	669	
15	0	0	0	0	638	
0	0	0	0	0	607	
1	0	0	0	0	580	
2	0	0	0	0	551	
3	0	0	0	0	525	
4	0	0	0	0	504	
5	0	0	0	0	481	
6	0	0	0	0	464	
7	0	0	0	0	451	
8	0	0	0	0	435	
9	0	0	0	0	421	
10	0	0	0	0	412	
11	0	0	0	0	408	
12	0	0	0	0	412	
13	0	0	0	0	421	
14	0	0	0	0	428	
15	0	0	0	0	427	
0	0	0	0	0	424	
1	0	0	0	0	419	
2	0	0	0	0	420	
3	0	0	0	0	420	
4	0	0	0	0	421	
5	0	0	0	0	421	
6	0	0	0	0	421	
7	0	0	0	0	418	
8	0	0	0	0	419	
9	0	0	0	0	424	
10	0	0	0	0	425	
11	0	0	0	0	426	
12	0	0	0	0	432	
13	0	0	0	0	436	
14	0	0	0	0	438	
15	0	0	0	0	443	
0	0	0	0	0	450	
1	0	0	0	0	457	
2	0	0	0	0	460	
3	0	0	0	0	464	
4	0	0	0	0	475	
5	0	0	0	0	485	
6	0	0	0	0	489	
7	0	0	0	0	489	
8	0	0	0	0	489	
9	0	0	0	0	486	
10	0	0	0	0	480	
11	0	0	0	0	472	
12	0	0	0	0	467	
13	0	0	0	0	465	
14	0	0	0	0	463	
15	0	0	0	0	467	
0	0	0	0	0	474	
1	0	0	0	0	485	
2	0	0	0	0	492	
3	0	0	0	0	493	
4	0	0	0	0	496	
5	0	0	0	0	497	
6	0	0	0	0	491	
7	0	0	0	0	487	
8	0	0	0	0	491	
9	0	0	0	0	496	
10	0	0	0	0	498	
11	0	0	0	0	495	
12	0	0	0	0	493	
13	0	0	0	0	494	
14	0	0	0	0	496	
15	0	0	0	0	498	
0	0	0	0	0	501	
1	0	0	0	0	498	
2	0	0	0	0	491	
3	0	0	0	0	489	
4	0	0	0	0	487	
5	0	0	0	0	479	
6	0	0	0	0	479	
7	0	0	0	0	481	
8	0	0	0	0	482	
9	0	0	0	0	480	
10	0	0	0	0	481	
11	0	0	0	0	490	
12	0	0	0	0	499	
13	0	0	0	0	504	
14	0	0	0	0	507	
15	0	0	0	0	512	
0	0	0	0	0	517	
1	0	0	0	0	514	
2	0	0	0	0	510	
3	0	0	0	0	512	
4	0	0	0	0	517	
5	0	0	0	0	514	
6	0	0	0	0	511	
7	0	0	0	0	510	
8	0	0	0	0	515	
9	0	0	0	0	519	
10	0	0	0	0	517	
11	0	0	0	0	515	
12	0	0	0	0	516	
13	0	0	0	0	513	
14	0	0	0	0	510	
15	0	0	0	0	504	
0	0	0	0	0	500	
1	0	0	0	0	499	
2	0	0	0	0	501	
3	0	0	0	0	500	
4	0	0	0	0	498	
5	0	0	0	0	496	
6	0	0	0	0	496	
7	0	0	0	0	497	
8	0	0	0	0	501	
9	0	0	0	0	501	
10	0	0	0	0	503	
11	0	0	0	0	502	
12	0	0	0	0	499	
13	0	0	0	0	500	
14	0	0	0	0	499	
15	0	0	0	0	497	
0	0	0	0	0	495	
1	0	0	0	0	498	
2	0	0	0	0	504	
3	0	0	0	0	513	
4	0	0	0	0	519	
5	0	0	0	0	520	
6	0	0	0	0	524	
7	0	0	0	0	528	
8	0	0	0	0	531	
9	0	0	0	0	528	
10	0	0	0	0	527	
11	0	0	0	0	526	
12	0	0	0	0	521	
13	0	0	0	0	511	
14	0	0	0	0	504	
15	0	0	0	0	507	
0	0	0	0	0	516	
1	0	0	0	0	523	
2	0	0	0	0	524	
3	0	0	0	0	530	
4	0	0	0	0	535	
5	0	0	0	0	537	
6	0	0	0	0	540	
7	0	0	0	0	540	
8	0	0	0	0	542	
9	0	0	0	0	547	
10	0	0	0	0	556	
11	0	0	0	0	555	
12	0	0	0	0	551	
13	0	0	0	0	547	
14	0	0	0	0	540	
15	0	0	0	0	542	
0	0	0	0	0	541	
1	0	0	0	0	536	
2	0	0	0	0	536	
3	0	0	0	0	535	
4	0	0	0	0	533	
5	0	0	0	0	532	
6	0	0	0	0	530	
7	0	0	0	0	529	
8	0	0	0	0	528	
9	0	0	0	0	533	
10	0	0	0	0	538	
11	0	0	0	0	540	
12	0	0	0	0	538	
13	0	0	0	0	532	
14	0	0	0	0	526	
15	0	0	0	0	527	
0	0	0	0	0	528	
1	0	0	0	0	528	
2	0	0	0	0	527	
3	0	0	0	0	528	
4	0	0	0	0	536	
5	0	0	0	0	543	
6	0	0	0	0	551	
7	0	0	0	0	557	
8	0	0	0	0	562	
9	0	0	0	0	568	
10	0	0	0	0	572	
11	0	0	0	0	569	
12	0	0	0	0	563	
13	0	0	0	0	559	
14	0	0	0	0	558	
15	0	0	0	0	553	
0	0	0	0	0	547	
1	0	0	0	0	547	
2	0	0	0	0	546	
3	0	0	0	0	540	
4	0	0	0	0	533	
5	0	0	0	0	532	
6	0	0	0	0	536	
7	0	0	0	0	538	
8	0	0	0	0	537	
9	0	0	0	0	544	
10	0	0	0	0	550	
11	0	0	0	0	550	
12	0	0	0	0	552	
13	0	0	0	0	558	
14	0	0	0	0	561	
15	0	0	0	0	565	
0	0	0	0	0	566	
1	0	0	0	0	562	
2	0	0	0	0	557	
3	0	0	0	0	551	
4	0	0	0	0	549	
5	0	0	0	0	544	
6	0	0	0	0	533	
7	0	0	0	0	527	
8	0	0	0	0	523	
9	0	0	0	0	522	
10	0	0	0	0	520	
11	0	0	0	0	519	
12	0	0	0	0	520	
13	0	0	0	0	521	
14	0	0	0	0	524	
15	0	0	0	0	526	
0	0	0	0	0	531	
1	0	0	0	0	523	
2	0	0	0	0	517	
3	0	0	0	0	513	
4	0	0	0	0	509	
5	0	0	0	0	512	
6	0	0	0	0	514	
7	0	0	0	0	514	
8	0	0	0	0	515	
9	0	0	0	0	515	
10	0	0	0	0	524	
11	0	0	0	0	532	
12	0	0	0	0	529	
13	0	0	0	0	520	
14	0	0	0	0	513	
15	0	0	0	0	510	
0	0	0	0	0	510	
1	0	0	0	0	519	
2	0	0	0	0	516	
3	0	0	0	0	507	
4	0	0	0	0	499	
5	0	0	0	0	494	
6	0	0	0	0	492	
7	0	0	0	0	484	
8	0	0	0	0	476	
9	0	0	0	0	470	
10	0	0	0	0	462	
11	0	0	0	0	457	
12	0	0	0	0	458	
13	0	0	0	0	464	
14	0	0	0	0	471	
15	0	0	0	0	476	
0	0	0	0	0	477	
1	0	0	0	0	476	
2	0	0	0	0	479	
3	0	0	0	0	479	
4	0	0	0	0	474	
5	0	0	0	0	469	
6	0	0	0	0	468	
7	0	0	0	0	464	
8	0	0	0	0	457	
9	0	0	0	0	456	
10	0	0	0	0	457	
11	0	0	0	0	452	
12	0	0	0	0	446	
13	0	0	0	0	445	
14	0	0	0	0	450	
15	0	0	0	0	456	
0	0	0	0	0	461	
1	0	0	0	0	467	
2	0	0	0	0	472	
3	0	0	0	0	476	
4	0	0	0	0	477	
5	0	0	0	0	478	
6	0	0	0	0	476	
7	0	0	0	0	472	
8	0	0	0	0	471	
9	0	0	0	0	470	
10	0	0	0	0	463	
11	0	0	0	0	459	
12	0	0	0	0	459	
13	0	0	0	0	459	
14	0	0	0	0	462	
15	0	0	0	0	463	
0	0	0	0	0	468	
1	0	0	0	0	475	
2	0	0	0	0	480	
3	0	0	0	0	481	
4	0	0	0	0	479	
5	0	0	0	0	479	
6	0	0	0	0	481	
7	0	0	0	0	477	
8	0	0	0	0	479	
9	0	0	0	0	486	
10	0	0	0	0	489	
11	0	0	0	0	496	
12	0	0	0	0	500	
13	0	0	0	0	501	
14	0	0	0	0	504	
15	0	0	0	0	504	
0	0	0	0	0	503	
1	0	0	0	0	500	
2	0	0	0	0	497	
3	0	0	0	0	494	
4	0	0	0	0	492	
5	0	0	0	0	488	
6	0	0	0	0	480	
7	0	0	0	0	472	
8	0	0	0	0	470	
9	0	0	0	0	473	
10	0	0	0	0	481	
11	0	0	0	0	487	
12	0	0	0	0	496	
13	0	0	0	0	502	
14	0	0	0	0	507	
15	0	0	0	0	505	
0	0	0	0	0	499	
1	0	0	0	0	492	
2	0	0	0	0	492	
3	0	0	0	0	492	
4	0	0	0	0	489	
5	0	0	0	0	495	
6	0	0	0	0	502	
7	0	0	0	0	507	
8	0	0	0	0	509	
9	0	0	0	0	509	
10	0	0	0	0	510	
11	0	0	0	0	511	
12	0	0	0	0	512	
13	0	0	0	0	514	
14	0	0	0	0	515	
15	0	0	0	0	518	
0	0	0	0	0	517	
1	0	0	0	0	515	
2	0	0	0	0	513	
3	0	0	0	0	507	
4	0	0	0	0	502	
5	0	0	0	0	496	
6	0	0	0	0	489	
7	0	0	0	0	485	
8	0	0	0	0	487	
9	0	0	0	0	485	
10	0	0	0	0	483	
11	0	0	0	0	488	
12	0	0	0	0	497	
13	0	0	0	0	507	
14	0	0	0	0	512	
15	0	0	0	0	512	
0	0	0	0	0	508	
1	0	0	0	0	504	
2	0	0	0	0	499	
3	0	0	0	0	500	
4	0	0	0	0	499	
5	0	0	0	0	502	
6	0	0	0	0	502	
7	0	0	0	0	500	
8	0	0	0	0	501	
9	0	0	0	0	499	
10	0	0	0	0	495	
11	0	0	0	0	491	
12	0	0	0	0	489	
13	0	0	0	0	489	
14	0	0	0	0	485	
15	0	0	0	0	482	
0	0	0	0	0	489	
1	0	0	0	0	508	
2	0	0	0	0	521	
3	0	0	0	0	528	
4	0	0	0	0	531	
5	0	0	0	0	528	
6	0	0	0	0	528	
7	0	0	0	0	525	
8	0	0	0	0	521	
9	0	0	0	0	517	
10	0	0	0	0	512	
11	0	0	0	0	508	
12	0	0	0	0	505	
13	0	0	0	0	503	
14	0	0	0	0	498	
15	0	0	0	0	491	
0	0	0	0	0	483	
1	0	0	0	0	475	
2	0	0	0	0	472	
3	0	0	0	0	479	
4	0	0	0	0	490	
5	0	0	0	0	498	
6	0	0	0	0	508	
7	0	0	0	0	521	
8	0	0	0	0	530	
9	0	0	0	0	534	
10	0	0	0	0	543	
11	0	0	0	0	546	
12	0	0	0	0	543	
13	0	0	0	0	537	
14	0	0	0	0	530	
15	0	0	0	0	526	
0	0	0	0	0	523	
1	0	0	0	0	520	
2	0	0	0	0	520	
3	0	0	0	0	519	
4	0	0	0	0	519	
5	0	0	0	0	519	
6	0	0	0	0	518	
7	0	0	0	0	515	
8	0	0	0	0	511	
9	0	0	0	0	504	
10	0	0	0	0	502	
11	0	0	0	0	503	
12	0	0	0	0	505	
13	0	0	0	0	505	
14	0	0	0	0	507	
15	0	0	0	0	510	
0	0	0	0	0	511	
1	0	0	0	0	513	
2	0	0	0	0	516	
3	0	0	0	0	522	
4	0	0	0	0	528	
5	0	0	0	0	539	
6	0	0	0	0	550	
7	0	0	0	0	556	
8	0	0	0	0	551	
9	0	0	0	0	545	
10	0	0	0	0	536	
11	0	0	0	0	529	
12	0	0	0	0	523	
13	0	0	0	0	522	
14	0	0	0	0	520	
15	0	0	0	0	518	
0	0	0	0	0	517	
1	0	0	0	0	515	
2	0	0	0	0	512	
3	0	0	0	0	512	
4	0	0	0	0	513	
5	0	0	0	0	515	
6	0	0	0	0	517	
7	0	0	0	0	519	
8	0	0	0	0	521	
9	0	0	0	0	524	
10	0	0	0	0	527	
11	0	0	0	0	529	
12	0	0	0	0	532	
13	0	0	0	0	530	
14	0	0	0	0	528	
15	0	0	0	0	528	
0	0	0	0	0	526	
1	0	0	0	0	515	
2	0	0	0	0	498	
3	0	0	0	0	483	
4	0	0	0	0	478	
5	0	0	0	0	482	
6	0	0	0	0	491	
7	0	0	0	0	497	
8	0	0	0	0	499	
9	0	0	0	0	499	
10	0	0	0	0	500	
11	0	0	0	0	508	
12	0	0	0	0	507	
13	0	0	0	0	496	
14	0	0	0	0	491	
15	0	0	0	0	491	
0	0	0	0	0	492	
1	0	0	0	0	492	
2	0	0	0	0	496	
3	0	0	0	0	499	
4	0	0	0	0	496	
5	0	0	0	0	492	
6	0	0	0	0	493	
7	0	0	0	0	494	
8	0	0	0	0	495	
9	0	0	0	0	496	
10	0	0	0	0	497	
11	0	0	0	0	496	
12	0	0	0	0	495	
13	0	0	0	0	497	
14	0	0	0	0	497	
15	0	0	0	0	490	
0	0	0	0	0	484	
1	0	0	0	0	479	
2	0	0	0	0	480	
3	0	0	0	0	486	
4	0	0	0	0	496	
5	0	0	0	0	507	
6	0	0	0	0	513	
7	0	0	0	0	515	
8	0	0	0	0	512	
9	0	0	0	0	503	
10	0	0	0	0	496	
11	0	0	0	0	494	
12	0	0	0	0	492	
13	0	0	0	0	493	
14	0	0	0	0	495	
15	0	0	0	0	492	
0	0	0	0	0	488	
1	0	0	0	0	494	
2	0	0	0	0	502	
3	0	0	0	0	507	
4	0	0	0	0	510	
5	0	0	0	0	506	
6	0	0	0	0	501	
7	0	0	0	0	496	
8	0	0	0	0	496	
9	0	0	0	0	501	
10	0	0	0	0	496	
11	0	0	0	0	491	
12	0	0	0	0	488	
13	0	0	0	0	482	
14	0	0	0	0	478	
15	0	0	0	0	475	
0	0	0	0	0	475	
1	0	0	0	0	474	
2	0	0	0	0	469	
3	0	0	0	0	470	
4	0	0	0	0	474	
5	0	0	0	0	480	
6	0	0	0	0	477	
7	0	0	0	0	473	
8	0	0	0	0	477	
9	0	0	0	0	484	
10	0	0	0	0	498	
11	0	0	0	0	516	
12	0	0	0	0	535	
13	0	0	0	0	554	
14	0	0	0	0	575	
15	0	0	0	0	597	
0	0	0	0	0	615	
1	0	0	0	0	629	
2	0	0	0	0	648	
3	0	0	0	0	671	
4	0	0	0	0	696	
5	0	0	0	0	719	
6	0	0	0	0	730	
7	0	0	0	0	734	
8	0	0	0	0	743	
9	0	0	0	0	756	
10	0	0	0	0	766	
11	0	0	0	0	774	
12	0	0	0	0	780	
13	0	0	0	0	780	
14	0	0	0	0	771	
15	0	0	0	0	767	
0	0	0	0	0	758	
1	0	0	0	0	745	
2	0	0	0	0	728	
3	0	0	0	0	709	
4	0	0	0	0	697	
5	0	0	0	0	678	
6	0	0	0	0	648	
7	0	0	0	0	619	
8	0	0	0	0	592	
9	0	0	0	0	571	
10	0	0	0	0	552	
11	0	0	0	0	534	
12	0	0	0	0	511	
13	0	0	0	0	483	
14	0	0	0	0	459	
15	0	0	0	0	435	
0	0	0	0	0	412	
1	0	0	0	0	397	
2	0	0	0	0	392	
3	0	0	0	0	399	
4	0	0	0	0	398	
5	0	0	0	0	397	
6	0	0	0	0	403	
7	0	0	0	0	412	
8	0	0	0	0	411	
9	0	0	0	0	407	
10	0	0	0	0	405	
11	0	0	0	0	404	
12	0	0	0	0	403	
13	0	0	0	0	403	
14	0	0	0	0	406	
15	0	0	0	0	408	
0	0	0	0	0	413	
1	0	0	0	0	422	
2	0	0	0	0	428	
3	0	0	0	0	432	
4	0	0	0	0	440	
5	0	0	0	0	448	
6	0	0	0	0	447	
7	0	0	0	0	443	
8	0	0	0	0	451	
9	0	0	0	0	462	
10	0	0	0	0	470	
11	0	0	0	0	474	
12	0	0	0	0	476	
13	0	0	0	0	476	
14	0	0	0	0	473	
15	0	0	0	0	472	
0	0	0	0	0	468	
1	0	0	0	0	467	
2	0	0	0	0	468	
3	0	0	0	0	472	
4	0	0	0	0	478	
5	0	0	0	0	484	
6	0	0	0	0	485	
7	0	0	0	0	481	
8	0	0	0	0	477	
9	0	0	0	0	484	
10	0	0	0	0	491	
11	0	0	0	0	493	
12	0	0	0	0	494	
13	0	0	0	0	492	
14	0	0	0	0	489	
15	0	0	0	0	490	
0	0	0	0	0	491	
1	0	0	0	0	487	
2	0	0	0	0	482	
3	0	0	0	0	477	
4	0	0	0	0	476	
5	0	0	0	0	469	
6	0	0	0	0	460	
7	0	0	0	0	460	
8	0	0	0	0	461	
9	0	0	0	0	464	
10	0	0	0	0	473	
11	0	0	0	0	482	
12	0	0	0	0	488	
13	0	0	0	0	491	
14	0	0	0	0	499	
15	0	0	0	0	502	
0	0	0	0	0	500	
1	0	0	0	0	499	
2	0	0	0	0	494	
3	0	0	0	0	488	
4	0	0	0	0	487	
5	0	0	0	0	491	
6	0	0	0	0	493	
7	0	0	0	0	492	
8	0	0	0	0	498	
9	0	0	0	0	510	
10	0	0	0	0	518	
11	0	0	0	0	520	
12	0	0	0	0	519	
13	0	0	0	0	518	
14	0	0	0	0	511	
15	0	0	0	0	501	
0	0	0	0	0	496	
1	0	0	0	0	495	
2	0	0	0	0	492	
3	0	0	0	0	492	
4	0	0	0	0	499	
5	0	0	0	0	506	
6	0	0	0	0	504	
7	0	0	0	0	503	
8	0	0	0	0	503	
9	0	0	0	0	504	
10	0	0	0	0	501	
11	0	0	0	0	493	
12	0	0	0	0	490	
13	0	0	0	0	492	
14	0	0	0	0	492	
15	0	0	0	0	495	
0	0	0	0	0	493	
1	0	0	0	0	492	
2	0	0	0	0	496	
3	0	0	0	0	502	
4	0	0	0	0	505	
5	0	0	0	0	508	
6	0	0	0	0	515	
7	0	0	0	0	524	
8	0	0	0	0	519	
9	0	0	0	0	518	
10	0	0	0	0	523	
11	0	0	0	0	525	
12	0	0	0	0	533	
13	0	0	0	0	542	
14	0	0	0	0	541	
15	0	0	0	0	540	
0	0	0	0	0	538	
1	0	0	0	0	529	
2	0	0	0	0	519	
3	0	0	0	0	516	
4	0	0	0	0	512	
5	0	0	0	0	502	
6	0	0	0	0	497	
7	0	0	0	0	497	
8	0	0	0	0	503	
9	0	0	0	0	512	
10	0	0	0	0	526	
11	0	0	0	0	536	
12	0	0	0	0	545	
13	0	0	0	0	551	
14	0	0	0	0	545	
15	0	0	0	0	533	
0	0	0	0	0	524	
1	0	0	0	0	518	
2	0	0	0	0	516	
3	0	0	0	0	517	
4	0	0	0	0	520	
5	0	0	0	0	523	
6	0	0	0	0	525	
7	0	0	0	0	526	
8	0	0	0	0	525	
9	0	0	0	0	524	
10	0	0	0	0	525	
11	0	0	0	0	527	
12	0	0	0	0	529	
13	0	0	0	0	534	
14	0	0	0	0	537	
15	0	0	0	0	540	
0	0	0	0	0	542	
1	0	0	0	0	552	
2	0	0	0	0	561	
3	0	0	0	0	565	
4	0	0	0	0	569	
5	0	0	0	0	572	
6	0	0	0	0	571	
7	0	0	0	0	565	
8	0	0	0	0	558	
9	0	0	0	0	553	
10	0	0	0	0	549	
11	0	0	0	0	546	
12	0	0	0	0	544	
13	0	0	0	0	541	
14	0	0	0	0	544	
15	0	0	0	0	549	
0	0	0	0	0	549	
1	0	0	0	0	546	
2	0	0	0	0	545	
3	0	0	0	0	547	
4	0	0	0	0	551	
5	0	0	0	0	560	
6	0	0	0	0	569	
7	0	0	0	0	568	
8	0	0	0	0	559	
9	0	0	0	0	551	
10	0	0	0	0	545	
11	0	0	0	0	547	
12	0	0	0	0	547	
13	0	0	0	0	542	
14	0	0	0	0	538	
15	0	0	0	0	537	
0	0	0	0	0	539	
1	0	0	0	0	539	
2	0	0	0	0	531	
3	0	0	0	0	521	
4	0	0	0	0	521	
5	0	0	0	0	531	
6	0	0	0	0	539	
7	0	0	0	0	543	
8	0	0	0	0	545	
9	0	0	0	0	543	
10	0	0	0	0	542	
11	0	0	0	0	540	
12	0	0	0	0	538	
13	0	0	0	0	535	
14	0	0	0	0	536	
15	0	0	0	0	538	
0	0	0	0	0	540	
1	0	0	0	0	540	
2	0	0	0	0	536	
3	0	0	0	0	532	
4	0	0	0	0	528	
5	0	0	0	0	525	
6	0	0	0	0	525	
7	0	0	0	0	524	
8	0	0	0	0	522	
9	0	0	0	0	515	
10	0	0	0	0	511	
11	0	0	0	0	512	
12	0	0	0	0	513	
13	0	0	0	0	513	
14	0	0	0	0	505	
15	0	0	0	0	500	
0	0	0	0	0	499	
1	0	0	0	0	497	
2	0	0	0	0	492	
3	0	0	0	0	490	
4	0	0	0	0	486	
5	0	0	0	0	482	
6	0	0	0	0	479	
7	0	0	0	0	475	
8	0	0	0	0	476	
9	0	0	0	0	481	
10	0	0	0	0	487	
11	0	0	0	0	487	
12	0	0	0	0	488	
13	0	0	0	0	494	
14	0	0	0	0	497	
15	0	0	0	0	499	
0	0	0	0	0	500	
1	0	0	0	0	499	
2	0	0	0	0	492	
3	0	0	0	0	488	
4	0	0	0	0	487	
5	0	0	0	0	481	
6	0	0	0	0	478	
7	0	0	0	0	479	
8	0	0	0	0	478	
9	0	0	0	0	477	
10	0	0	0	0	483	
11	0	0	0	0	489	
12	0	0	0	0	488	
13	0	0	0	0	487	
14	0	0	0	0	487	
15	0	0	0	0	490	
0	0	0	0	0	491	
1	0	0	0	0	487	
2	0	0	0	0	483	
3	0	0	0	0	481	
4	0	0	0	0	480	
5	0	0	0	0	483	
6	0	0	0	0	482	
7	0	0	0	0	482	
8	0	0	0	0	479	
9	0	0	0	0	471	
10	0	0	0	0	464	
11	0	0	0	0	460	
12	0	0	0	0	458	
13	0	0	0	0	461	
14	0	0	0	0	467	
15	0	0	0	0	471	
0	0	0	0	0	472	
1	0	0	0	0	472	
2	0	0	0	0	466	
3	0	0	0	0	458	
4	0	0	0	0	456	
5	0	0	0	0	459	
6	0	0	0	0	467	
7	0	0	0	0	475	
8	0	0	0	0	483	
9	0	0	0	0	491	
10	0	0	0	0	498	
11	0	0	0	0	501	
12	0	0	0	0	501	
13	0	0	0	0	503	
14	0	0	0	0	506	
15	0	0	0	0	506	
0	0	0	0	0	499	
1	0	0	0	0	495	
2	0	0	0	0	492	
3	0	0	0	0	489	
4	0	0	0	0	483	
5	0	0	0	0	480	
6	0	0	0	0	480	
7	0	0	0	0	480	
8	0	0	0	0	480	
9	0	0	0	0	478	
10	0	0	0	0	477	
11	0	0	0	0	479	
12	0	0	0	0	483	
13	0	0	0	0	487	
14	0	0	0	0	487	
15	0	0	0	0	484	
0	0	0	0	0	480	
1	0	0	0	0	479	
2	0	0	0	0	478	
3	0	0	0	0	476	
4	0	0	0	0	475	
5	0	0	0	0	473	
6	0	0	0	0	472	
7	0	0	0	0	471	
8	0	0	0	0	477	
9	0	0	0	0	480	
10	0	0	0	0	484	
11	0	0	0	0	494	
12	0	0	0	0	504	
13	0	0	0	0	510	
14	0	0	0	0	508	
15	0	0	0	0	505	
0	0	0	0	0	508	
1	0	0	0	0	512	
2	0	0	0	0	516	
3	0	0	0	0	515	
4	0	0	0	0	505	
5	0	0	0	0	493	
6	0	0	0	0	485	
7	0	0	0	0	487	
8	0	0	0	0	489	
9	0	0	0	0	491	
10	0	0	0	0	496	
11	0	0	0	0	497	
12	0	0	0	0	495	
13	0	0	0	0	492	
14	0	0	0	0	493	
15	0	0	0	0	494	
0	0	0	0	0	490	
1	0	0	0	0	489	
2	0	0	0	0	489	
3	0	0	0	0	490	
4	0	0	0	0	487	
5	0	0	0	0	486	
6	0	0	0	0	493	
7	0	0	0	0	495	
8	0	0	0	0	486	
9	0	0	0	0	474	
10	0	0	0	0	470	
11	0	0	0	0	472	
12	0	0	0	0	477	
13	0	0	0	0	484	
14	0	0	0	0	489	
15	0	0	0	0	492	
0	0	0	0	0	497	
1	0	0	0	0	504	
2	0	0	0	0	512	
3	0	0	0	0	516	
4	0	0	0	0	518	
5	0	0	0	0	518	
6	0	0	0	0	513	
7	0	0	0	0	505	
8	0	0	0	0	498	
9	0	0	0	0	493	
10	0	0	0	0	491	
11	0	0	0	0	492	
12	0	0	0	0	500	
13	0	0	0	0	508	
14	0	0	0	0	507	
15	0	0	0	0	504	
0	0	0	0	0	498	
1	0	0	0	0	491	
2	0	0	0	0	489	
3	0	0	0	0	489	
4	0	0	0	0	491	
5	0	0	0	0	499	
6	0	0	0	0	510	
7	0	0	0	0	518	
8	0	0	0	0	521	
9	0	0	0	0	521	
10	0	0	0	0	519	
11	0	0	0	0	511	
12	0	0	0	0	503	
13	0	0	0	0	498	
14	0	0	0	0	497	
15	0	0	0	0	500	
0	0	0	0	0	502	
1	0	0	0	0	501	
2	0	0	0	0	497	
3	0	0	0	0	492	
4	0	0	0	0	488	
5	0	0	0	0	487	
6	0	0	0	0	492	
7	0	0	0	0	497	
8	0	0	0	0	499	
9	0	0	0	0	499	
10	0	0	0	0	500	
11	0	0	0	0	509	
12	0	0	0	0	518	
13	0	0	0	0	521	
14	0	0	0	0	520	
15	0	0	0	0	515	
0	0	0	0	0	506	
1	0	0	0	0	496	
2	0	0	0	0	489	
3	0	0	0	0	487	
4	0	0	0	0	494	
5	0	0	0	0	507	
6	0	0	0	0	525	
7	0	0	0	0	535	
8	0	0	0	0	537	
9	0	0	0	0	535	
10	0	0	0	0	528	
11	0	0	0	0	518	
12	0	0	0	0	515	
13	0	0	0	0	517	
14	0	0	0	0	516	
15	0	0	0	0	511	
0	0	0	0	0	508	
1	0	0	0	0	509	
2	0	0	0	0	512	
3	0	0	0	0	515	
4	0	0	0	0	516	
5	0	0	0	0	519	
6	0	0	0	0	516	
7	0	0	0	0	506	
8	0	0	0	0	497	
9	0	0	0	0	493	
10	0	0	0	0	491	
11	0	0	0	0	493	
12	0	0	0	0	495	
13	0	0	0	0	505	
14	0	0	0	0	518	
15	0	0	0	0	527	
0	0	0	0	0	529	
1	0	0	0	0	525	
2	0	0	0	0	521	
3	0	0	0	0	519	
4	0	0	0	0	516	
5	0	0	0	0	516	
6	0	0	0	0	515	
7	0	0	0	0	517	
8	0	0	0	0	515	
9	0	0	0	0	506	
10	0	0	0	0	499	
11	0	0	0	0	495	
12	0	0	0	0	494	
13	0	0	0	0	496	
14	0	0	0	0	502	
15	0	0	0	0	506	
0	0	0	0	0	512	
1	0	0	0	0	518	
2	0	0	0	0	524	
3	0	0	0	0	529	
4	0	0	0	0	529	
5	0	0	0	0	529	
6	0	0	0	0	525	
7	0	0	0	0	519	
8	0	0	0	0	518	
9	0	0	0	0	513	
10	0	0	0	0	504	
11	0	0	0	0	492	
12	0	0	0	0	482	
13	0	0	0	0	478	
14	0	0	0	0	480	
15	0	0	0	0	485	
0	0	0	0	0	490	
1	0	0	0	0	493	
2	0	0	0	0	492	
3	0	0	0	0	496	
4	0	0	0	0	498	
5	0	0	0	0	504	
6	0	0	0	0	508	
7	0	0	0	0	510	
8	0	0	0	0	504	
9	0	0	0	0	496	
10	0	0	0	0	492	
11	0	0	0	0	489	
12	0	0	0	0	488	
13	0	0	0	0	484	
14	0	0	0	0	478	
15	0	0	0	0	476	
0	0	0	0	0	480	
1	0	0	0	0	483	
2	0	0	0	0	478	
3	0	0	0	0	473	
4	0	0	0	0	476	
5	0	0	0	0	479	
6	0	0	0	0	484	
7	0	0	0	0	487	
8	0	0	0	0	491	
9	0	0	0	0	492	
10	0	0	0	0	495	
11	0	0	0	0	497	
12	0	0	0	0	494	
13	0	0	0	0	491	
14	0	0	0	0	491	
15	0	0	0	0	489	
0	0	0	0	0	483	
1	0	0	0	0	481	
2	0	0	0	0	483	
3	0	0	0	0	486	
4	0	0	0	0	492	
5	0	0	0	0	495	
6	0	0	0	0	495	
7	0	0	0	0	489	
8	0	0	0	0	487	
9	0	0	0	0	488	
10	0	0	0	0	489	
11	0	0	0	0	492	
12	0	0	0	0	499	
13	0	0	0	0	503	
14	0	0	0	0	510	
15	0	0	0	0	521	
0	0	0	0	0	534	
1	0	0	0	0	552	
2	0	0	0	0	575	
3	0	0	0	0	593	
4	0	0	0	0	604	
5	0	0	0	0	617	
6	0	0	0	0	634	
7	0	0	0	0	653	
8	0	0	0	0	671	
9	0	0	0	0	690	
10	0	0	0	0	703	
11	0	0	0	0	715	
12	0	0	0	0	728	
13	0	0	0	0	748	
14	0	0	0	0	763	
15	0	0	0	0	776	
0	0	0	0	0	793	
1	0	0	0	0	803	
2	0	0	0	0	804	
3	0	0	0	0	797	
4	0	0	0	0	782	
5	0	0	0	0	759	
6	0	0	0	0	737	
7	0	0	0	0	718	
8	0	0	0	0	696	
9	0	0	0	0	671	
10	0	0	0	0	647	
11	0	0	0	0	624	
12	0	0	0	0	600	
13	0	0	0	0	580	
14	0	0	0	0	560	
15	0	0	0	0	539	
0	0	0	0	0	520	
1	0	0	0	0	501	
2	0	0	0	0	475	
3	0	0	0	0	449	
4	0	0	0	0	425	
5	0	0	0	0	411	
6	0	0	0	0	406	
7	0	0	0	0	396	
8	0	0	0	0	386	
9	0	0	0	0	386	
10	0	0	0	0	400	
11	0	0	0	0	413	
12	0	0	0	0	421	
13	0	0	0	0	426	
14	0	0	0	0	427	
15	0	0	0	0	425	
0	0	0	0	0	423	
1	0	0	0	0	425	
2	0	0	0	0	427	
3	0	0	0	0	422	
4	0	0	0	0	417	
5	0	0	0	0	415	
6	0	0	0	0	414	
7	0	0	0	0	415	
8	0	0	0	0	420	
9	0	0	0	0	425	
10	0	0	0	0	429	
11	0	0	0	0	433	
12	0	0	0	0	435	
13	0	0	0	0	439	
14	0	0	0	0	445	
15	0	0	0	0	450	
0	0	0	0	0	453	
1	0	0	0	0	456	
2	0	0	0	0	461	
3	0	0	0	0	465	
4	0	0	0	0	468	
5	0	0	0	0	469	
6	0	0	0	0	465	
7	0	0	0	0	471	
8	0	0	0	0	478	
9	0	0	0	0	476	
10	0	0	0	0	471	
11	0	0	0	0	467	
12	0	0	0	0	466	
13	0	0	0	0	461	
14	0	0	0	0	462	
15	0	0	0	0	471	
0	0	0	0	0	477	
1	0	0	0	0	477	
2	0	0	0	0	473	
3	0	0	0	0	476	
4	0	0	0	0	479	
5	0	0	0	0	480	
6	0	0	0	0	483	
7	0	0	0	0	487	
8	0	0	0	0	488	
9	0	0	0	0	493	
10	0	0	0	0	493	
11	0	0	0	0	492	
12	0	0	0	0	493	
13	0	0	0	0	490	
14	0	0	0	0	487	
15	0	0	0	0	486	
0	0	0	0	0	487	
1	0	0	0	0	487	
2	0	0	0	0	487	
3	0	0	0	0	487	
4	0	0	0	0	484	
5	0	0	0	0	477	
6	0	0	0	0	473	
7	0	0	0	0	471	
8	0	0	0	0	473	
9	0	0	0	0	473	
10	0	0	0	0	474	
11	0	0	0	0	478	
12	0	0	0	0	480	
13	0	0	0	0	479	
14	0	0	0	0	477	
15	0	0	0	0	471	
0	0	0	0	0	467	
1	0	0	0	0	468	
2	0	0	0	0	476	
3	0	0	0	0	482	
4	0	0	0	0	494	
5	0	0	0	0	504	
6	0	0	0	0	508	
7	0	0	0	0	510	
8	0	0	0	0	515	
9	0	0	0	0	521	
10	0	0	0	0	521	
11	0	0	0	0	516	
12	0	0	0	0	511	
13	0	0	0	0	506	
14	0	0	0	0	501	
15	0	0	0	0	496	
0	0	0	0	0	490	
1	0	0	0	0	492	
2	0	0	0	0	494	
3	0	0	0	0	496	
4	0	0	0	0	496	
5	0	0	0	0	499	
6	0	0	0	0	503	
7	0	0	0	0	505	
8	0	0	0	0	505	
9	0	0	0	0	502	
10	0	0	0	0	500	
11	0	0	0	0	503	
12	0	0	0	0	510	
13	0	0	0	0	515	
14	0	0	0	0	510	
15	0	0	0	0	511	
0	0	0	0	0	522	
1	0	0	0	0	528	
2	0	0	0	0	524	
3	0	0	0	0	521	
4	0	0	0	0	518	
5	0	0	0	0	517	
6	0	0	0	0	514	
7	0	0	0	0	506	
8	0	0	0	0	504	
9	0	0	0	0	506	
10	0	0	0	0	504	
11	0	0	0	0	499	
12	0	0	0	0	494	
13	0	0	0	0	502	
14	0	0	0	0	518	
15	0	0	0	0	528	
0	0	0	0	0	532	
1	0	0	0	0	536	
2	0	0	0	0	543	
3	0	0	0	0	548	
4	0	0	0	0	550	
5	0	0	0	0	553	
6	0	0	0	0	557	
7	0	0	0	0	552	
8	0	0	0	0	547	
9	0	0	0	0	547	
10	0	0	0	0	542	
11	0	0	0	0	540	
12	0	0	0	0	541	
13	0	0	0	0	540	
14	0	0	0	0	540	
15	0	0	0	0	539	
0	0	0	0	0	536	
1	0	0	0	0	531	
2	0	0	0	0	527	
3	0	0	0	0	523	
4	0	0	0	0	513	
5	0	0	0	0	509	
6	0	0	0	0	510	
7	0	0	0	0	513	
8	0	0	0	0	516	
9	0	0	0	0	521	
10	0	0	0	0	532	
11	0	0	0	0	546	
12	0	0	0	0	555	
13	0	0	0	0	555	
14	0	0	0	0	553	
15	0	0	0	0	546	
0	0	0	0	0	544	
1	0	0	0	0	550	
2	0	0	0	0	560	
3	0	0	0	0	567	
4	0	0	0	0	571	
5	0	0	0	0	571	
6	0	0	0	0	569	
7	0	0	0	0	566	
8	0	0	0	0	563	
9	0	0	0	0	557	
10	0	0	0	0	547	
11	0	0	0	0	543	
12	0	0	0	0	549	
13	0	0	0	0	552	
14	0	0	0	0	553	
15	0	0	0	0	551	
0	0	0	0	0	551	
1	0	0	0	0	551	
2	0	0	0	0	546	
3	0	0	0	0	544	
4	0	0	0	0	542	
5	0	0	0	0	542	
6	0	0	0	0	544	
7	0	0	0	0	546	
8	0	0	0	0	543	
9	0	0	0	0	532	
10	0	0	0	0	527	
11	0	0	0	0	536	
12	0	0	0	0	542	
13	0	0	0	0	544	
14	0	0	0	0	548	
15	0	0	0	0	552	
0	0	0	0	0	549	
1	0	0	0	0	543	
2	0	0	0	0	536	
3	0	0	0	0	529	
4	0	0	0	0	514	
5	0	0	0	0	501	
6	0	0	0	0	496	
7	0	0	0	0	495	
8	0	0	0	0	497	
9	0	0	0	0	509	
10	0	0	0	0	515	
11	0	0	0	0	515	
12	0	0	0	0	515	
13	0	0	0	0	511	
14	0	0	0	0	503	
15	0	0	0	0	497	
0	0	0	0	0	500	
1	0	0	0	0	507	
2	0	0	0	0	506	
3	0	0	0	0	504	
4	0	0	0	0	506	
5	0	0	0	0	509	
6	0	0	0	0	507	
7	0	0	0	0	508	
8	0	0	0	0	507	
9	0	0	0	0	504	
10	0	0	0	0	504	
11	0	0	0	0	497	
12	0	0	0	0	483	
13	0	0	0	0	470	
14	0	0	0	0	465	
15	0	0	0	0	461	
0	0	0	0	0	459	
1	0	0	0	0	464	
2	0	0	0	0	469	
3	0	0	0	0	471	
4	0	0	0	0	470	
5	0	0	0	0	471	
6	0	0	0	0	469	
7	0	0	0	0	466	
8	0	0	0	0	465	
9	0	0	0	0	465	
10	0	0	0	0	468	
11	0	0	0	0	471	
12	0	0	0	0	472	
13	0	0	0	0	472	
14	0	0	0	0	472	
15	0	0	0	0	471	
0	0	0	0	0	467	
1	0	0	0	0	475	
2	0	0	0	0	488	
3	0	0	0	0	493	
4	0	0	0	0	492	
5	0	0	0	0	494	
6	0	0	0	0	494	
7	0	0	0	0	488	
8	0	0	0	0	485	
9	0	0	0	0	484	
10	0	0	0	0	481	
11	0	0	0	0	475	
12	0	0	0	0	473	
13	0	0	0	0	476	
14	0	0	0	0	484	
15	0	0	0	0	486	
0	0	0	0	0	488	
1	0	0	0	0	494	
2	0	0	0	0	490	
3	0	0	0	0	482	
4	0	0	0	0	473	
5	0	0	0	0	465	
6	0	0	0	0	458	
7	0	0	0	0	452	
8	0	0	0	0	454	
9	0	0	0	0	463	
10	0	0	0	0	469	
11	0	0	0	0	471	
12	0	0	0	0	469	
13	0	0	0	0	474	
14	0	0	0	0	483	
15	0	0	0	0	489	
0	0	0	0	0	488	
1	0	0	0	0	483	
2	0	0	0	0	482	
3	0	0	0	0	480	
4	0	0	0	0	475	
5	0	0	0	0	472	
6	0	0	0	0	475	
7	0	0	0	0	487	
8	0	0	0	0	500	
9	0	0	0	0	508	
10	0	0	0	0	512	
11	0	0	0	0	512	
12	0	0	0	0	507	
13	0	0	0	0	506	
14	0	0	0	0	505	
15	0	0	0	0	496	
0	0	0	0	0	481	
1	0	0	0	0	471	
2	0	0	0	0	464	
3	0	0	0	0	458	
4	0	0	0	0	448	
5	0	0	0	0	444	
6	0	0	0	0	454	
7	0	0	0	0	470	
8	0	0	0	0	478	
9	0	0	0	0	478	
10	0	0	0	0	477	
11	0	0	0	0	475	
12	0	0	0	0	472	
13	0	0	0	0	475	
14	0	0	0	0	480	
15	0	0	0	0	485	
0	0	0	0	0	486	
1	0	0	0	0	487	
2	0	0	0	0	488	
3	0	0	0	0	489	
4	0	0	0	0	495	
5	0	0	0	0	501	
6	0	0	0	0	503	
7	0	0	0	0	501	
8	0	0	0	0	495	
9	0	0	0	0	492	
10	0	0	0	0	492	
11	0	0	0	0	495	
12	0	0	0	0	499	
13	0	0	0	0	499	
14	0	0	0	0	501	
15	0	0	0	0	507	
0	0	0	0	0	510	
1	0	0	0	0	512	
2	0	0	0	0	508	
3	0	0	0	0	503	
4	0	0	0	0	496	
5	0	0	0	0	489	
6	0	0	0	0	488	
7	0	0	0	0	492	
8	0	0	0	0	495	
9	0	0	0	0	497	
10	0	0	0	0	500	
11	0	0	0	0	502	
12	0	0	0	0	504	
13	0	0	0	0	503	
14	0	0	0	0	499	
15	0	0	0	0	495	
0	0	0	0	0	491	
1	0	0	0	0	483	
2	0	0	0	0	477	
3	0	0	0	0	476	
4	0	0	0	0	482	
5	0	0	0	0	484	
6	0	0	0	0	489	
7	0	0	0	0	496	
8	0	0	0	0	500	
9	0	0	0	0	498	
10	0	0	0	0	495	
11	0	0	0	0	492	
12	0	0	0	0	493	
13	0	0	0	0	492	
14	0	0	0	0	487	
15	0	0	0	0	483	
0	0	0	0	0	481	
1	0	0	0	0	483	
2	0	0	0	0	484	
3	0	0	0	0	487	
4	0	0	0	0	487	
5	0	0	0	0	492	
6	0	0	0	0	499	
7	0	0	0	0	502	
8	0	0	0	0	501	
9	0	0	0	0	501	
10	0	0	0	0	504	
11	0	0	0	0	506	
12	0	0	0	0	508	
13	0	0	0	0	512	
14	0	0	0	0	514	
15	0	0	0	0	512	
0	0	0	0	0	514	
1	0	0	0	0	522	
2	0	0	0	0	527	
3	0	0	0	0	526	
4	0	0	0	0	519	
5	0	0	0	0	509	
6	0	0	0	0	502	
7	0	0	0	0	499	
8	0	0	0	0	497	
9	0	0	0	0	494	
10	0	0	0	0	491	
11	0	0	0	0	491	
12	0	0	0	0	492	
13	0	0	0	0	495	
14	0	0	0	0	499	
15	0	0	0	0	499	
0	0	0	0	0	504	
1	0	0	0	0	505	
2	0	0	0	0	506	
3	0	0	0	0	511	
4	0	0	0	0	516	
5	0	0	0	0	514	
6	0	0	0	0	511	
7	0	0	0	0	509	
8	0	0	0	0	512	
9	0	0	0	0	516	
10	0	0	0	0	517	
11	0	0	0	0	517	
12	0	0	0	0	512	
13	0	0	0	0	510	
14	0	0	0	0	511	
15	0	0	0	0	511	
0	0	0	0	0	502	
1	0	0	0	0	499	
2	0	0	0	0	498	
3	0	0	0	0	498	
4	0	0	0	0	501	
5	0	0	0	0	504	
6	0	0	0	0	500	
7	0	0	0	0	504	
8	0	0	0	0	511	
9	0	0	0	0	513	
10	0	0	0	0	508	
11	0	0	0	0	503	
12	0	0	0	0	506	
13	0	0	0	0	511	
14	0	0	0	0	518	
15	0	0	0	0	523	
0	0	0	0	0	521	
1	0	0	0	0	518	
2	0	0	0	0	519	
3	0	0	0	0	517	
4	0	0	0	0	517	
5	0	0	0	0	518	
6	0	0	0	0	518	
7	0	0	0	0	516	
8	0	0	0	0	513	
9	0	0	0	0	515	
10	0	0	0	0	524	
11	0	0	0	0	534	
12	0	0	0	0	535	
13	0	0	0	0	526	
14	0	0	0	0	513	
15	0	0	0	0	502	
0	0	0	0	0	497	
1	0	0	0	0	495	
2	0	0	0	0	492	
3	0	0	0	0	489	
4	0	0	0	0	493	
5	0	0	0	0	504	
6	0	0	0	0	507	
7	0	0	0	0	507	
8	0	0	0	0	507	
9	0	0	0	0	505	
10	0	0	0	0	498	
11	0	0	0	0	493	
12	0	0	0	0	492	
13	0	0	0	0	491	
14	0	0	0	0	490	
15	0	0	0	0	492	
0	0	0	0	0	497	
1	0	0	0	0	503	
2	0	0	0	0	509	
3	0	0	0	0	511	
4	0	0	0	0	512	
5	0	0	0	0	506	
6	0	0	0	0	500	
7	0	0	0	0	497	
8	0	0	0	0	496	
9	0	0	0	0	498	
10	0	0	0	0	497	
11	0	0	0	0	492	
12	0	0	0	0	490	
13	0	0	0	0	489	
14	0	0	0	0	491	
15	0	0	0	0	493	
0	0	0	0	0	498	
1	0	0	0	0	504	
2	0	0	0	0	499	
3	0	0	0	0	491	
4	0	0	0	0	484	
5	0	0	0	0	480	
6	0	0	0	0	480	
7	0	0	0	0	479	
8	0	0	0	0	481	
9	0	0	0	0	481	
10	0	0	0	0	476	
11	0	0	0	0	473	
12	0	0	0	0	469	
13	0	0	0	0	467	
14	0	0	0	0	471	
15	0	0	0	0	473	
0	0	0	0	0	468	
1	0	0	0	0	464	
2	0	0	0	0	468	
3	0	0	0	0	472	
4	0	0	0	0	474	
5	0	0	0	0	481	
6	0	0	0	0	492	
7	0	0	0	0	496	
8	0	0	0	0	500	
9	0	0	0	0	507	
10	0	0	0	0	511	
11	0	0	0	0	508	
12	0	0	0	0	504	
13	0	0	0	0	496	
14	0	0	0	0	485	
15	0	0	0	0	471	
0	0	0	0	0	466	
1	0	0	0	0	468	
2	0	0	0	0	472	
3	0	0	0	0	486	
4	0	0	0	0	499	
5	0	0	0	0	505	
6	0	0	0	0	506	
7	0	0	0	0	507	
8	0	0	0	0	511	
9	0	0	0	0	518	
10	0	0	0	0	522	
11	0	0	0	0	532	
12	0	0	0	0	547	
13	0	0	0	0	562	
14	0	0	0	0	580	
15	0	0	0	0	598	
0	0	0	0	0	620	
1	0	0	0	0	643	
2	0	0	0	0	668	
3	0	0	0	0	689	
4	0	0	0	0	705	
5	0	0	0	0	721	
6	0	0	0	0	732	
7	0	0	0	0	748	
8	0	0	0	0	766	
9	0	0	0	0	784	
10	0	0	0	0	798	
11	0	0	0	0	799	
12	0	0	0	0	792	
13	0	0	0	0	782	
14	0	0	0	0	764	
15	0	0	0	0	746	
0	0	0	0	0	731	
1	0	0	0	0	717	
2	0	0	0	0	696	
3	0	0	0	0	665	
4	0	0	0	0	640	
5	0	0	0	0	615	
6	0	0	0	0	588	
7	0	0	0	0	561	
8	0	0	0	0	536	
9	0	0	0	0	517	
10	0	0	0	0	503	
11	0	0	0	0	491	
12	0	0	0	0	478	
13	0	0	0	0	459	
14	0	0	0	0	436	
15	0	0	0	0	419	
0	0	0	0	0	408	
1	0	0	0	0	404	
2	0	0	0	0	407	
3	0	0	0	0	408	
4	0	0	0	0	412	
5	0	0	0	0	418	
6	0	0	0	0	420	
7	0	0	0	0	418	
8	0	0	0	0	416	
9	0	0	0	0	416	
10	0	0	0	0	418	
11	0	0	0	0	421	
12	0	0	0	0	428	
13	0	0	0	0	435	
14	0	0	0	0	433	
15	0	0	0	0	428	
0	0	0	0	0	419	
1	0	0	0	0	408	
2	0	0	0	0	405	
3	0	0	0	0	415	
4	0	0	0	0	428	
5	0	0	0	0	437	
6	0	0	0	0	441	
7	0	0	0	0	441	
8	0	0	0	0	442	
9	0	0	0	0	450	
10	0	0	0	0	460	
11	0	0	0	0	465	
12	0	0	0	0	464	
13	0	0	0	0	468	
14	0	0	0	0	471	
15	0	0	0	0	471	
0	0	0	0	0	473	
1	0	0	0	0	470	
2	0	0	0	0	459	
3	0	0	0	0	451	
4	0	0	0	0	453	
5	0	0	0	0	458	
6	0	0	0	0	463	
7	0	0	0	0	467	
8	0	0	0	0	468	
9	0	0	0	0	470	
10	0	0	0	0	471	
11	0	0	0	0	467	
12	0	0	0	0	458	
13	0	0	0	0	454	
14	0	0	0	0	453	
15	0	0	0	0	453	
0	0	0	0	0	456	
1	0	0	0	0	460	
2	0	0	0	0	463	
3	0	0	0	0	468	
4	0	0	0	0	471	
5	0	0	0	0	471	
6	0	0	0	0	471	
7	0	0	0	0	472	
8	0	0	0	0	475	
9	0	0	0	0	477	
10	0	0	0	0	479	
11	0	0	0	0	482	
12	0	0	0	0	487	
13	0	0	0	0	487	
14	0	0	0	0	488	
15	0	0	0	0	487	
0	0	0	0	0	482	
1	0	0	0	0	479	
2	0	0	0	0	477	
3	0	0	0	0	479	
4	0	0	0	0	479	
5	0	0	0	0	481	
6	0	0	0	0	483	
7	0	0	0	0	480	
8	0	0	0	0	483	
9	0	0	0	0	490	
10	0	0	0	0	498	
11	0	0	0	0	511	
12	0	0	0	0	517	
13	0	0	0	0	513	
14	0	0	0	0	512	
15	0	0	0	0	513	
0	0	0	0	0	513	
1	0	0	0	0	510	
2	0	0	0	0	508	
3	0	0	0	0	510	
4	0	0	0	0	510	
5	0	0	0	0	508	
6	0	0	0	0	509	
7	0	0	0	0	507	
8	0	0	0	0	505	
9	0	0	0	0	503	
10	0	0	0	0	500	
11	0	0	0	0	497	
12	0	0	0	0	495	
13	0	0	0	0	499	
14	0	0	0	0	502	
15	0	0	0	0	500	
0	0	0	0	0	499	
1	0	0	0	0	495	
2	0	0	0	0	494	
3	0	0	0	0	493	
4	0	0	0	0	495	
5	0	0	0	0	496	
6	0	0	0	0	496	
7	0	0	0	0	496	
8	0	0	0	0	498	
9	0	0	0	0	493	
10	0	0	0	0	493	
11	0	0	0	0	498	
12	0	0	0	0	503	
13	0	0	0	0	507	
14	0	0	0	0	512	
15	0	0	0	0	517	
0	0	0	0	0	525	
1	0	0	0	0	537	
2	0	0	0	0	549	
3	0	0	0	0	553	
4	0	0	0	0	546	
5	0	0	0	0	540	
6	0	0	0	0	531	
7	0	0	0	0	520	
8	0	0	0	0	513	
9	0	0	0	0	514	
10	0	0	0	0	518	
11	0	0	0	0	524	
12	0	0	0	0	527	
13	0	0	0	0	520	
14	0	0	0	0	513	
15	0	0	0	0	510	
0	0	0	0	0	508	
1	0	0	0	0	510	
2	0	0	0	0	510	
3	0	0	0	0	512	
4	0	0	0	0	519	
5	0	0	0	0	528	
6	0	0	0	0	532	
7	0	0	0	0	541	
8	0	0	0	0	545	
9	0	0	0	0	548	
10	0	0	0	0	552	
11	0	0	0	0	545	
12	0	0	0	0	532	
13	0	0	0	0	519	
14	0	0	0	0	515	
15	0	0	0	0	510	
0	0	0	0	0	509	
1	0	0	0	0	515	
2	0	0	0	0	529	
3	0	0	0	0	540	
4	0	0	0	0	548	
5	0	0	0	0	554	
6	0	0	0	0	552	
7	0	0	0	0	543	
8	0	0	0	0	533	
9	0	0	0	0	530	
10	0	0	0	0	530	
11	0	0	0	0	530	
12	0	0	0	0	532	
13	0	0	0	0	537	
14	0	0	0	0	540	
15	0	0	0	0	545	
0	0	0	0	0	556	
1	0	0	0	0	560	
2	0	0	0	0	556	
3	0	0	0	0	547	
4	0	0	0	0	540	
5	0	0	0	0	543	
6	0	0	0	0	547	
7	0	0	0	0	546	
8	0	0	0	0	547	
9	0	0	0	0	547	
10	0	0	0	0	547	
11	0	0	0	0	544	
12	0	0	0	0	544	
13	0	0	0	0	549	
14	0	0	0	0	549	
15	0	0	0	0	546	
0	0	0	0	0	543	
1	0	0	0	0	538	
2	0	0	0	0	533	
3	0	0	0	0	526	
4	0	0	0	0	534	
5	0	0	0	0	544	
6	0	0	0	0	549	
7	0	0	0	0	541	
8	0	0	0	0	528	
9	0	0	0	0	519	
10	0	0	0	0	513	
11	0	0	0	0	507	
12	0	0	0	0	505	
13	0	0	0	0	501	
14	0	0	0	0	504	
15	0	0	0	0	512	
0	0	0	0	0	518	
1	0	0	0	0	523	
2	0	0	0	0	526	
3	0	0	0	0	529	
4	0	0	0	0	529	
5	0	0	0	0	522	
6	0	0	0	0	508	
7	0	0	0	0	495	
8	0	0	0	0	489	
9	0	0	0	0	493	
10	0	0	0	0	502	
11	0	0	0	0	507	
12	0	0	0	0	503	
13	0	0	0	0	499	
14	0	0	0	0	495	
15	0	0	0	0	494	
0	0	0	0	0	498	
1	0	0	0	0	504	
2	0	0	0	0	500	
3	0	0	0	0	499	
4	0	0	0	0	503	
5	0	0	0	0	507	
6	0	0	0	0	507	
7	0	0	0	0	505	
8	0	0	0	0	501	
9	0	0	0	0	496	
10	0	0	0	0	489	
11	0	0	0	0	482	
12	0	0	0	0	474	
13	0	0	0	0	468	
14	0	0	0	0	463	
15	0	0	0	0	459	
0	0	0	0	0	456	
1	0	0	0	0	459	
2	0	0	0	0	467	
3	0	0	0	0	478	
4	0	0	0	0	488	
5	0	0	0	0	492	
6	0	0	0	0	496	
7	0	0	0	0	493	
8	0	0	0	0	482	
9	0	0	0	0	474	
10	0	0	0	0	471	
11	0	0	0	0	466	
12	0	0	0	0	462	
13	0	0	0	0	458	
14	0	0	0	0	462	
15	0	0	0	0	471	
0	0	0	0	0	481	
1	0	0	0	0	489	
2	0	0	0	0	496	
3	0	0	0	0	499	
4	0	0	0	0	498	
5	0	0	0	0	494	
6	0	0	0	0	484	
7	0	0	0	0	476	
8	0	0	0	0	475	
9	0	0	0	0	475	
10	0	0	0	0	479	
11	0	0	0	0	480	
12	0	0	0	0	479	
13	0	0	0	0	474	
14	0	0	0	0	465	
15	0	0	0	0	457	
0	0	0	0	0	456	
1	0	0	0	0	458	
2	0	0	0	0	462	
3	0	0	0	0	465	
4	0	0	0	0	469	
5	0	0	0	0	473	
6	0	0	0	0	475	
7	0	0	0	0	472	
8	0	0	0	0	470	
9	0	0	0	0	470	
10	0	0	0	0	472	
11	0	0	0	0	476	
12	0	0	0	0	481	
13	0	0	0	0	489	
14	0	0	0	0	492	
15	0	0	0	0	490	
0	0	0	0	0	483	
1	0	0	0	0	478	
2	0	0	0	0	479	
3	0	0	0	0	482	
4	0	0	0	0	479	
5	0	0	0	0	477	
6	0	0	0	0	476	
7	0	0	0	0	475	
8	0	0	0	0	472	
9	0	0	0	0	472	
10	0	0	0	0	473	
11	0	0	0	0	472	
12	0	0	0	0	473	
13	0	0	0	0	477	
14	0	0	0	0	481	
15	0	0	0	0	481	
0	0	0	0	0	480	
1	0	0	0	0	481	
2	0	0	0	0	478	
3	0	0	0	0	473	
4	0	0	0	0	472	
5	0	0	0	0	478	
6	0	0	0	0	488	
7	0	0	0	0	500	
8	0	0	0	0	502	
9	0	0	0	0	502	
10	0	0	0	0	506	
11	0	0	0	0	507	
12	0	0	0	0	503	
13	0	0	0	0	496	
14	0	0	0	0	490	
15	0	0	0	0	490	
0	0	0	0	0	495	
1	0	0	0	0	502	
2	0	0	0	0	507	
3	0	0	0	0	507	
4	0	0	0	0	507	
5	0	0	0	0	507	
6	0	0	0	0	510	
7	0	0	0	0	512	
8	0	0	0	0	513	
9	0	0	0	0	508	
10	0	0	0	0	500	
11	0	0	0	0	494	
12	0	0	0	0	485	
13	0	0	0	0	486	
14	0	0	0	0	493	
15	0	0	0	0	499	
0	0	0	0	0	499	
1	0	0	0	0	502	
2	0	0	0	0	505	
3	0	0	0	0	505	
4	0	0	0	0	507	
5	0	0	0	0	511	
6	0	0	0	0	512	
7	0	0	0	0	511	
8	0	0	0	0	512	
9	0	0	0	0	510	
10	0	0	0	0	506	
11	0	0	0	0	507	
12	0	0	0	0	504	
13	0	0	0	0	497	
14	0	0	0	0	490	
15	0	0	0	0	484	
0	0	0	0	0	484	
1	0	0	0	0	481	
2	0	0	0	0	483	
3	0	0	0	0	489	
4	0	0	0	0	495	
5	0	0	0	0	495	
6	0	0	0	0	488	
7	0	0	0	0	482	
8	0	0	0	0	476	
9	0	0	0	0	475	
10	0	0	0	0	475	
11	0	0	0	0	479	
12	0	0	0	0	487	
13	0	0	0	0	497	
14	0	0	0	0	507	
15	0	0	0	0	513	
0	0	0	0	0	513	
1	0	0	0	0	511	
2	0	0	0	0	504	
3	0	0	0	0	500	
4	0	0	0	0	508	
5	0	0	0	0	519	
6	0	0	0	0	523	
7	0	0	0	0	520	
8	0	0	0	0	516	
9	0	0	0	0	513	
10	0	0	0	0	506	
11	0	0	0	0	495	
12	0	0	0	0	483	
13	0	0	0	0	479	
14	0	0	0	0	486	
15	0	0	0	0	493	
0	0	0	0	0	499	
1	0	0	0	0	499	
2	0	0	0	0	500	
3	0	0	0	0	511	
4	0	0	0	0	520	
5	0	0	0	0	519	
6	0	0	0	0	518	
7	0	0	0	0	514	
8	0	0	0	0	514	
9	0	0	0	0	513	
10	0	0	0	0	516	
11	0	0	0	0	521	
12	0	0	0	0	523	
13	0	0	0	0	521	
14	0	0	0	0	517	
15	0	0	0	0	515	
0	0	0	0	0	508	
1	0	0	0	0	507	
2	0	0	0	0	510	
3	0	0	0	0	513	
4	0	0	0	0	516	
5	0	0	0	0	516	
6	0	0	0	0	515	
7	0	0	0	0	516	
8	0	0	0	0	518	
9	0	0	0	0	517	
10	0	0	0	0	514	
11	0	0	0	0	513	
12	0	0	0	0	515	
13	0	0	0	0	515	
14	0	0	0	0	514	
15	0	0	0	0	513	
0	0	0	0	0	510	
1	0	0	0	0	509	
2	0	0	0	0	511	
3	0	0	0	0	512	
4	0	0	0	0	507	
5	0	0	0	0	505	
6	0	0	0	0	501	
7	0	0	0	0	500	
8	0	0	0	0	503	
9	0	0	0	0	503	
10	0	0	0	0	505	
11	0	0	0	0	509	
12	0	0	0	0	512	
13	0	0	0	0	515	
14	0	0	0	0	523	
15	0	0	0	0	526	
0	0	0	0	0	528	
1	0	0	0	0	527	
2	0	0	0	0	523	
3	0	0	0	0	520	
4	0	0	0	0	516	
5	0	0	0	0	509	
6	0	0	0	0	508	
7	0	0	0	0	515	
8	0	0	0	0	518	
9	0	0	0	0	512	
10	0	0	0	0	507	
11	0	0	0	0	510	
12	0	0	0	0	517	
13	0	0	0	0	520	
14	0	0	0	0	519	
15	0	0	0	0	521	
0	0	0	0	0	527	
1	0	0	0	0	532	
2	0	0	0	0	532	
3	0	0	0	0	530	
4	0	0	0	0	526	
5	0	0	0	0	518	
6	0	0	0	0	505	
7	0	0	0	0	500	
8	0	0	0	0	497	
9	0	0	0	0	493	
10	0	0	0	0	495	
11	0	0	0	0	497	
12	0	0	0	0	500	
13	0	0	0	0	504	
14	0	0	0	0	500	
15	0	0	0	0	499	
0	0	0	0	0	502	
1	0	0	0	0	503	
2	0	0	0	0	505	
3	0	0	0	0	505	
4	0	0	0	0	508	
5	0	0	0	0	507	
6	0	0	0	0	505	
7	0	0	0	0	503	
8	0	0	0	0	508	
9	0	0	0	0	513	
10	0	0	0	0	515	
11	0	0	0	0	521	
12	0	0	0	0	519	
13	0	0	0	0	515	
14	0	0	0	0	512	
15	0	0	0	0	505	
0	0	0	0	0	502	
1	0	0	0	0	502	
2	0	0	0	0	504	
3	0	0	0	0	502	
4	0	0	0	0	496	
5	0	0	0	0	492	
6	0	0	0	0	487	
7	0	0	0	0	477	
8	0	0	0	0	464	
9	0	0	0	0	467	
10	0	0	0	0	474	
11	0	0	0	0	477	
12	0	0	0	0	478	
13	0	0	0	0	484	
14	0	0	0	0	495	
15	0	0	0	0	502	
0	0	0	0	0	509	
1	0	0	0	0	508	
2	0	0	0	0	504	
3	0	0	0	0	502	
4	0	0	0	0	503	
5	0	0	0	0	503	
6	0	0	0	0	501	
7	0	0	0	0	497	
8	0	0	0	0	495	
9	0	0	0	0	494	
10	0	0	0	0	491	
11	0	0	0	0	487	
12	0	0	0	0	483	
13	0	0	0	0	480	
14	0	0	0	0	473	
15	0	0	0	0	465	
0	0	0	0	0	462	
1	0	0	0	0	460	
2	0	0	0	0	464	
3	0	0	0	0	475	
4	0	0	0	0	483	
5	0	0	0	0	492	
6	0	0	0	0	496	
7	0	0	0	0	494	
8	0	0	0	0	495	
9	0	0	0	0	497	
10	0	0	0	0	504	
11	0	0	0	0	513	
12	0	0	0	0	524	
13	0	0	0	0	545	
14	0	0	0	0	572	
15	0	0	0	0	597	
0	0	0	0	0	613	
1	0	0	0	0	627	
2	0	0	0	0	643	
3	0	0	0	0	662	
4	0	0	0	0	678	
5	0	0	0	0	694	
6	0	0	0	0	712	
7	0	0	0	0	728	
8	0	0	0	0	746	
9	0	0	0	0	765	
10	0	0	0	0	784	
11	0	0	0	0	801	
12	0	0	0	0	812	
13	0	0	0	0	823	
14	0	0	0	0	824	
15	0	0	0	0	809	
0	0	0	0	0	789	
1	0	0	0	0	766	
2	0	0	0	0	750	
3	0	0	0	0	739	
4	0	0	0	0	720	
5	0	0	0	0	696	
6	0	0	0	0	667	
7	0	0	0	0	638	
8	0	0	0	0	609	
9	0	0	0	0	583	
10	0	0	0	0	557	
11	0	0	0	0	531	
12	0	0	0	0	508	
13	0	0	0	0	490	
14	0	0	0	0	484	
15	0	0	0	0	481	
0	0	0	0	0	469	
1	0	0	0	0	458	
2	0	0	0	0	449	
3	0	0	0	0	441	
4	0	0	0	0	432	
5	0	0	0	0	421	
6	0	0	0	0	416	
7	0	0	0	0	415	
8	0	0	0	0	409	
9	0	0	0	0	404	
10	0	0	0	0	402	
11	0	0	0	0	405	
12	0	0	0	0	409	
13	0	0	0	0	410	
14	0	0	0	0	406	
15	0	0	0	0	403	
0	0	0	0	0	411	
1	0	0	0	0	418	
2	0	0	0	0	419	
3	0	0	0	0	417	
4	0	0	0	0	420	
5	0	0	0	0	426	
6	0	0	0	0	430	
7	0	0	0	0	431	
8	0	0	0	0	432	
9	0	0	0	0	440	
10	0	0	0	0	453	
11	0	0	0	0	457	
12	0	0	0	0	455	
13	0	0	0	0	457	
14	0	0	0	0	455	
15	0	0	0	0	453	
0	0	0	0	0	455	
1	0	0	0	0	455	
2	0	0	0	0	455	
3	0	0	0	0	464	
4	0	0	0	0	472	
5	0	0	0	0	471	
6	0	0	0	0	473	
7	0	0	0	0	477	
8	0	0	0	0	485	
9	0	0	0	0	489	
10	0	0	0	0	487	
11	0	0	0	0	483	
12	0	0	0	0	483	
13	0	0	0	0	489	
14	0	0	0	0	493	
15	0	0	0	0	492	
0	0	0	0	0	491	
1	0	0	0	0	488	
2	0	0	0	0	484	
3	0	0	0	0	478	
4	0	0	0	0	473	
5	0	0	0	0	475	
6	0	0	0	0	479	
7	0	0	0	0	479	
8	0	0	0	0	476	
9	0	0	0	0	479	
10	0	0	0	0	485	
11	0	0	0	0	490	
12	0	0	0	0	492	
13	0	0	0	0	493	
14	0	0	0	0	493	
15	0	0	0	0	492	
0	0	0	0	0	488	
1	0	0	0	0	481	
2	0	0	0	0	473	
3	0	0	0	0	465	
4	0	0	0	0	464	
5	0	0	0	0	466	
6	0	0	0	0	469	
7	0	0	0	0	479	
8	0	0	0	0	486	
9	0	0	0	0	487	
10	0	0	0	0	492	
11	0	0	0	0	494	
12	0	0	0	0	492	
13	0	0	0	0	492	
14	0	0	0	0	497	
15	0	0	0	0	501	
0	0	0	0	0	504	
1	0	0	0	0	505	
2	0	0	0	0	508	
3	0	0	0	0	511	
4	0	0	0	0	504	
5	0	0	0	0	499	
6	0	0	0	0	496	
7	0	0	0	0	496	
8	0	0	0	0	494	
9	0	0	0	0	480	
10	0	0	0	0	470	
11	0	0	0	0	464	
12	0	0	0	0	464	
13	0	0	0	0	465	
14	0	0	0	0	471	
15	0	0	0	0	479	
0	0	0	0	0	485	
1	0	0	0	0	494	
2	0	0	0	0	504	
3	0	0	0	0	512	
4	0	0	0	0	514	
5	0	0	0	0	509	
6	0	0	0	0	507	
7	0	0	0	0	511	
8	0	0	0	0	516	
9	0	0	0	0	524	
10	0	0	0	0	535	
11	0	0	0	0	540	
12	0	0	0	0	539	
13	0	0	0	0	538	
14	0	0	0	0	538	
15	0	0	0	0	536	
0	0	0	0	0	530	
1	0	0	0	0	524	
2	0	0	0	0	520	
3	0	0	0	0	519	
4	0	0	0	0	519	
5	0	0	0	0	521	
6	0	0	0	0	519	
7	0	0	0	0	515	
8	0	0	0	0	513	
9	0	0	0	0	516	
10	0	0	0	0	517	
11	0	0	0	0	519	
12	0	0	0	0	518	
13	0	0	0	0	519	
14	0	0	0	0	521	
15	0	0	0	0	529	
0	0	0	0	0	537	
1	0	0	0	0	543	
2	0	0	0	0	551	
3	0	0	0	0	564	
4	0	0	0	0	575	
5	0	0	0	0	577	
6	0	0	0	0	575	
7	0	0	0	0	562	
8	0	0	0	0	552	
9	0	0	0	0	543	
10	0	0	0	0	535	
11	0	0	0	0	532	
12	0	0	0	0	535	
13	0	0	0	0	533	
14	0	0	0	0	531	
15	0	0	0	0	531	
0	0	0	0	0	527	
1	0	0	0	0	522	
2	0	0	0	0	521	
3	0	0	0	0	523	
4	0	0	0	0	525	
5	0	0	0	0	526	
6	0	0	0	0	532	
7	0	0	0	0	543	
8	0	0	0	0	550	
9	0	0	0	0	556	
10	0	0	0	0	562	
11	0	0	0	0	566	
12	0	0	0	0	567	
13	0	0	0	0	564	
14	0	0	0	0	555	
15	0	0	0	0	547	
0	0	0	0	0	536	
1	0	0	0	0	521	
2	0	0	0	0	512	
3	0	0	0	0	511	
4	0	0	0	0	519	
5	0	0	0	0	524	
6	0	0	0	0	527	
7	0	0	0	0	532	
8	0	0	0	0	532	
9	0	0	0	0	531	
10	0	0	0	0	536	
11	0	0	0	0	537	
12	0	0	0	0	542	
13	0	0	0	0	549	
14	0	0	0	0	550	
15	0	0	0	0	548	
0	0	0	0	0	544	
1	0	0	0	0	543	
2	0	0	0	0	545	
3	0	0	0	0	547	
4	0	0	0	0	548	
5	0	0	0	0	547	
6	0	0	0	0	542	
7	0	0	0	0	540	
8	0	0	0	0	539	
9	0	0	0	0	536	
10	0	0	0	0	535	
11	0	0	0	0	535	
12	0	0	0	0	537	
13	0	0	0	0	543	
14	0	0	0	0	550	
15	0	0	0	0	553	
0	0	0	0	0	552	
1	0	0	0	0	551	
2	0	0	0	0	548	
3	0	0	0	0	543	
4	0	0	0	0	537	
5	0	0	0	0	528	
6	0	0	0	0	522	
7	0	0	0	0	525	
8	0	0	0	0	525	
9	0	0	0	0	526	
10	0	0	0	0	527	
11	0	0	0	0	527	
12	0	0	0	0	521	
13	0	0	0	0	513	
14	0	0	0	0	508	
15	0	0	0	0	503	
0	0	0	0	0	497	
1	0	0	0	0	492	
2	0	0	0	0	488	
3	0	0	0	0	489	
4	0	0	0	0	492	
5	0	0	0	0	487	
6	0	0	0	0	476	
7	0	0	0	0	468	
8	0	0	0	0	466	
9	0	0	0	0	471	
10	0	0	0	0	475	
11	0	0	0	0	476	
12	0	0	0	0	484	
13	0	0	0	0	487	
14	0	0	0	0	485	
15	0	0	0	0	479	
0	0	0	0	0	476	
1	0	0	0	0	477	
2	0	0	0	0	473	
3	0	0	0	0	469	
4	0	0	0	0	472	
5	0	0	0	0	480	
6	0	0	0	0	486	
7	0	0	0	0	485	
8	0	0	0	0	477	
9	0	0	0	0	475	
10	0	0	0	0	473	
11	0	0	0	0	472	
12	0	0	0	0	470	
13	0	0	0	0	468	
14	0	0	0	0	468	
15	0	0	0	0	470	
0	0	0	0	0	468	
1	0	0	0	0	465	
2	0	0	0	0	465	
3	0	0	0	0	463	
4	0	0	0	0	458	
5	0	0	0	0	454	
6	0	0	0	0	454	
7	0	0	0	0	460	
8	0	0	0	0	467	
9	0	0	0	0	472	
10	0	0	0	0	474	
11	0	0	0	0	477	
12	0	0	0	0	478	
13	0	0	0	0	480	
14	0	0	0	0	481	
15	0	0	0	0	482	
0	0	0	0	0	483	
1	0	0	0	0	484	
2	0	0	0	0	481	
3	0	0	0	0	481	
4	0	0	0	0	485	
5	0	0	0	0	489	
6	0	0	0	0	491	
7	0	0	0	0	488	
8	0	0	0	0	485	
9	0	0	0	0	478	
10	0	0	0	0	473	
11	0	0	0	0	468	
12	0	0	0	0	464	
13	0	0	0	0	461	
14	0	0	0	0	455	
15	0	0	0	0	456	
0	0	0	0	0	464	
1	0	0	0	0	475	
2	0	0	0	0	483	
3	0	0	0	0	489	
4	0	0	0	0	490	
5	0	0	0	0	488	
6	0	0	0	0	492	
7	0	0	0	0	495	
8	0	0	0	0	489	
9	0	0	0	0	483	
10	0	0	0	0	476	
11	0	0	0	0	476	
12	0	0	0	0	479	
13	0	0	0	0	477	
14	0	0	0	0	472	
15	0	0	0	0	467	
0	0	0	0	0	466	
1	0	0	0	0	471	
2	0	0	0	0	472	
3	0	0	0	0	476	
4	0	0	0	0	481	
5	0	0	0	0	479	
6	0	0	0	0	476	
7	0	0	0	0	471	
8	0	0	0	0	472	
9	0	0	0	0	480	
10	0	0	0	0	486	
11	0	0	0	0	490	
12	0	0	0	0	491	
13	0	0	0	0	486	
14	0	0	0	0	485	
15	0	0	0	0	492	
0	0	0	0	0	503	
1	0	0	0	0	511	
2	0	0	0	0	511	
3	0	0	0	0	511	
4	0	0	0	0	509	
5	0	0	0	0	508	
6	0	0	0	0	507	
7	0	0	0	0	504	
8	0	0	0	0	501	
9	0	0	0	0	499	
10	0	0	0	0	499	
11	0	0	0	0	498	
12	0	0	0	0	494	
13	0	0	0	0	489	
14	0	0	0	0	483	
15	0	0	0	0	482	
0	0	0	0	0	484	
1	0	0	0	0	492	
2	0	0	0	0	496	
3	0	0	0	0	490	
4	0	0	0	0	484	
5	0	0	0	0	479	
6	0	0	0	0	476	
7	0	0	0	0	476	
8	0	0	0	0	480	
9	0	0	0	0	484	
10	0	0	0	0	486	
11	0	0	0	0	488	
12	0	0	0	0	489	
13	0	0	0	0	489	
14	0	0	0	0	487	
15	0	0	0	0	490	
0	0	0	0	0	497	
1	0	0	0	0	505	
2	0	0	0	0	506	
3	0	0	0	0	504	
4	0	0	0	0	503	
5	0	0	0	0	505	
6	0	0	0	0	506	
7	0	0	0	0	502	
8	0	0	0	0	496	
9	0	0	0	0	493	
10	0	0	0	0	498	
11	0	0	0	0	504	
12	0	0	0	0	505	
13	0	0	0	0	504	
14	0	0	0	0	510	
15	0	0	0	0	518	
0	0	0	0	0	523	
1	0	0	0	0	523	
2	0	0	0	0	520	
3	0	0	0	0	516	
4	0	0	0	0	513	
5	0	0	0	0	504	
6	0	0	0	0	498	
7	0	0	0	0	500	
8	0	0	0	0	499	
9	0	0	0	0	489	
10	0	0	0	0	484	
11	0	0	0	0	485	
12	0	0	0	0	485	
13	0	0	0	0	483	
14	0	0	0	0	481	
15	0	0	0	0	469	
0	0	0	0	0	454	
1	0	0	0	0	450	
2	0	0	0	0	457	
3	0	0	0	0	471	
4	0	0	0	0	486	
5	0	0	0	0	495	
6	0	0	0	0	502	
7	0	0	0	0	505	
8	0	0	0	0	504	
9	0	0	0	0	506	
10	0	0	0	0	515	
11	0	0	0	0	524	
12	0	0	0	0	528	
13	0	0	0	0	523	
14	0	0	0	0	518	
15	0	0	0	0	512	
0	0	0	0	0	510	
1	0	0	0	0	512	
2	0	0	0	0	518	
3	0	0	0	0	524	
4	0	0	0	0	528	
5	0	0	0	0	528	
6	0	0	0	0	527	
7	0	0	0	0	527	
8	0	0	0	0	522	
9	0	0	0	0	511	
10	0	0	0	0	501	
11	0	0	0	0	498	
12	0	0	0	0	495	
13	0	0	0	0	491	
14	0	0	0	0	489	
15	0	0	0	0	486	
0	0	0	0	0	483	
1	0	0	0	0	483	
2	0	0	0	0	483	
3	0	0	0	0	486	
4	0	0	0	0	489	
5	0	0	0	0	490	
6	0	0	0	0	492	
7	0	0	0	0	497	
8	0	0	0	0	500	
9	0	0	0	0	499	
10	0	0	0	0	496	
11	0	0	0	0	495	
12	0	0	0	0	499	
13	0	0	0	0	502	
14	0	0	0	0	508	
15	0	0	0	0	518	
0	0	0	0	0	527	
1	0	0	0	0	531	
2	0	0	0	0	533	
3	0	0	0	0	531	
4	0	0	0	0	526	
5	0	0	0	0	526	
6	0	0	0	0	527	
7	0	0	0	0	527	
8	0	0	0	0	522	
9	0	0	0	0	519	
10	0	0	0	0	516	
11	0	0	0	0	512	
12	0	0	0	0	509	
13	0	0	0	0	501	
14	0	0	0	0	498	
15	0	0	0	0	503	
0	0	0	0	0	512	
1	0	0	0	0	518	
2	0	0	0	0	521	
3	0	0	0	0	521	
4	0	0	0	0	519	
5	0	0	0	0	518	
6	0	0	0	0	524	
7	0	0	0	0	530	
8	0	0	0	0	532	
9	0	0	0	0	529	
10	0	0	0	0	524	
11	0	0	0	0	524	
12	0	0	0	0	521	
13	0	0	0	0	519	
14	0	0	0	0	514	
15	0	0	0	0	516	
0	0	0	0	0	517	
1	0	0	0	0	518	
2	0	0	0	0	519	
3	0	0	0	0	524	
4	0	0	0	0	524	
5	0	0	0	0	515	
6	0	0	0	0	506	
7	0	0	0	0	498	
8	0	0	0	0	491	
9	0	0	0	0	489	
10	0	0	0	0	492	
11	0	0	0	0	493	
12	0	0	0	0	491	
13	0	0	0	0	495	
14	0	0	0	0	496	
15	0	0	0	0	491	
0	0	0	0	0	487	
1	0	0	0	0	484	
2	0	0	0	0	482	
3	0	0	0	0	477	
4	0	0	0	0	473	
5	0	0	0	0	475	
6	0	0	0	0	480	
7	0	0	0	0	486	
8	0	0	0	0	492	
9	0	0	0	0	494	
10	0	0	0	0	496	
11	0	0	0	0	496	
12	0	0	0	0	494	
13	0	0	0	0	492	
14	0	0	0	0	492	
15	0	0	0	0	488	
0	0	0	0	0	484	
1	0	0	0	0	479	
2	0	0	0	0	475	
3	0	0	0	0	477	
4	0	0	0	0	486	
5	0	0	0	0	494	
6	0	0	0	0	505	
7	0	0	0	0	513	
8	0	0	0	0	514	
9	0	0	0	0	513	
10	0	0	0	0	515	
11	0	0	0	0	511	
12	0	0	0	0	504	
13	0	0	0	0	497	
14	0	0	0	0	491	
15	0	0	0	0	489	
0	0	0	0	0	491	
1	0	0	0	0	491	
2	0	0	0	0	487	
3	0	0	0	0	479	
4	0	0	0	0	476	
5	0	0	0	0	474	
6	0	0	0	0	475	
7	0	0	0	0	479	
8	0	0	0	0	484	
9	0	0	0	0	488	
10	0	0	0	0	491	
11	0	0	0	0	492	
12	0	0	0	0	495	
13	0	0	0	0	495	
14	0	0	0	0	492	
15	0	0	0	0	492	
0	0	0	0	0	492	
1	0	0	0	0	488	
2	0	0	0	0	490	
3	0	0	0	0	496	
4	0	0	0	0	504	
5	0	0	0	0	513	
6	0	0	0	0	524	
7	0	0	0	0	529	
8	0	0	0	0	537	
9	0	0	0	0	547	
10	0	0	0	0	559	
11	0	0	0	0	576	
12	0	0	0	0	594	
13	0	0	0	0	603	
14	0	0	0	0	612	
15	0	0	0	0	624	
0	0	0	0	0	637	
1	0	0	0	0	657	
2	0	0	0	0	680	
3	0	0	0	0	702	
4	0	0	0	0	721	
5	0	0	0	0	745	
6	0	0	0	0	766	
7	0	0	0	0	783	
8	0	0	0	0	798	
9	0	0	0	0	805	
10	0	0	0	0	809	
11	0	0	0	0	808	
12	0	0	0	0	796	
13	0	0	0	0	778	
14	0	0	0	0	755	
15	0	0	0	0	732	
0	0	0	0	0	711	
1	0	0	0	0	687	
2	0	0	0	0	658	
3	0	0	0	0	632	
4	0	0	0	0	612	
5	0	0	0	0	595	
